# multipoles
# s[mm] polynom_b[n=0][T/m^n] polynom_b[n=1][T/m^n] polynom_b[n=2][T/m^n] polynom_b[n=3][T/m^n] polynom_b[n=4][T/m^n] polynom_b[n=5][T/m^n] polynom_b[n=6][T/m^n] 
+0.0000000000000000e+00 -5.9488666755146280e-01 +8.1196746546276248e+00 +3.4128520330078133e-01 -3.4325740287989966e+01 -1.0399324565565044e+04 +3.7329587322089334e+04 +3.7276013485861883e+07 
+1.0000000000000001e-01 -5.9488659325230220e-01 +8.1196601653784999e+00 +3.4703653920022015e-01 -3.3694797541125126e+01 -1.0480963081022639e+04 +3.3458505078115348e+04 +3.7621262550187461e+07 
+2.0000000000000001e-01 -5.9488651861679120e-01 +8.1196420359520545e+00 +3.5265076642829368e-01 -3.3011899991313726e+01 -1.0555857156710592e+04 +2.9375241298697012e+04 +3.7927196872781321e+07 
+3.0000000000000004e-01 -5.9488644353612419e-01 +8.1196207306104018e+00 +3.5811137191516912e-01 -3.2288394578711447e+01 -1.0624135615575951e+04 +2.5138681621539195e+04 +3.8195160647998422e+07 
+4.0000000000000002e-01 -5.9488636790145599e-01 +8.1195967136146834e+00 +3.6340183894362260e-01 -3.1535628244667507e+01 -1.0685927215897182e+04 +2.0807711796468830e+04 +3.8426497767663121e+07 
+5.0000000000000000e-01 -5.9488629160395712e-01 +8.1195704492260692e+00 +3.6850565346992598e-01 -3.0764947956942354e+01 -1.0741360768908193e+04 +1.6441217829482368e+04 +3.8622552375879183e+07 
+5.9999999999999998e-01 -5.9488621453480350e-01 +8.1195424017109126e+00 +3.7340630247544293e-01 -2.9987700852728512e+01 -1.0790565106581591e+04 +1.2098086786149677e+04 +3.8784668714877680e+07 
+6.9999999999999996e-01 -5.9488613658515666e-01 +8.1195130353283620e+00 +3.7808727176552065e-01 -2.9215233883472482e+01 -1.0833669035855337e+04 +7.8372047376576520e+03 +3.8914190891476423e+07 
+7.9999999999999993e-01 -5.9488605764617619e-01 +8.1194828143439057e+00 +3.8253204764617510e-01 -2.8458894167404289e+01 -1.0870801377684018e+04 +3.7174586927543046e+03 +3.9012463087322384e+07 
+8.9999999999999991e-01 -5.9488597760905193e-01 +8.1194522030198204e+00 +3.8672412051536970e-01 -2.7730028754524223e+01 -1.0902091026231878e+04 -2.0226464850620857e+02 +3.9080829812246099e+07 
+9.9999999999999989e-01 -5.9488589636496958e-01 +8.1194216656249267e+00 +3.9064698059344660e-01 -2.7039984859440008e+01 -1.0927666871428321e+04 -3.8630776961456177e+03 +3.9120635547375776e+07 
+1.0999999999999999e+00 -5.9488581380515271e-01 +8.1193916664229278e+00 +3.9428412270061430e-01 -2.6400109526068750e+01 -1.0947657884770642e+04 -7.2060938945567605e+03 +3.9133225139824077e+07 
+1.2000000000000000e+00 -5.9488572982082921e-01 +8.1193626696858345e+00 +3.9761904328941183e-01 -2.5821750026659807e+01 -1.0962193070630090e+04 -1.0172425402443421e+04 +3.9119943589720018e+07 
+1.3000000000000000e+00 -5.9488564430324131e-01 +8.1193351396800892e+00 +4.0063524027575315e-01 -2.5316253434170218e+01 -1.0971401452934757e+04 -1.2703185634672185e+04 +3.9082135961239904e+07 
+1.4000000000000001e+00 -5.9488555714367053e-01 +8.1193095406846840e+00 +4.0331621602164652e-01 -2.4894967148786723e+01 -1.0975412132693898e+04 -1.4739486205999347e+04 +3.9021147658028655e+07 
+1.5000000000000002e+00 -5.9488546823344934e-01 +8.1192863369725963e+00 +4.0564548015971641e-01 -2.4569238339329104e+01 -1.0974354346886881e+04 -1.6222440241867100e+04 +3.8938324716365144e+07 
+1.6000000000000003e+00 -5.9488537746391390e-01 +8.1192659928185602e+00 +4.0760654231946380e-01 -2.4350414176905165e+01 -1.0968357324109380e+04 -1.7093160996317492e+04 +3.8835013102305189e+07 
+1.7000000000000004e+00 -5.9488528472646052e-01 +8.1192489725082684e+00 +4.0918291914623356e-01 -2.4249842100132096e+01 -1.0957550415897345e+04 -1.7292760316460179e+04 +3.8712559331185117e+07 
+1.8000000000000005e+00 -5.9488518991250794e-01 +8.1192357403269355e+00 +4.1035813076712069e-01 -2.4278869440383755e+01 -1.0942063036795396e+04 -1.6762350950831664e+04 +3.8572310200322196e+07 
+1.9000000000000006e+00 -5.9488509291355451e-01 +8.1192267605603607e+00 +4.1111570601689085e-01 -2.4448843483199731e+01 -1.0922024750553577e+04 -1.5443046100944573e+04 +3.8415613164540291e+07 
+2.0000000000000004e+00 -5.9488499362110803e-01 +8.1192224975020810e+00 +4.1143917488637821e-01 -2.4771111653906825e+01 -1.0897565136420662e+04 -1.3275958408591612e+04 +3.8243815727478072e+07 
+2.1000000000000005e+00 -5.9488489195945227e-01 +8.1192232903217203e+00 +4.1131865275059720e-01 -2.5253117374449534e+01 -1.0868837711665394e+04 -1.0223552007386452e+04 +3.8058192736883469e+07 
+2.2000000000000006e+00 -5.9488478797228606e-01 +8.1192289783146752e+00 +4.1077064638903482e-01 -2.5886790168849217e+01 -1.0836111325062824e+04 -6.3331515174089245e+03 +3.7859853167617142e+07 
+2.3000000000000007e+00 -5.9488468173039133e-01 +8.1192392759299512e+00 +4.0981829023829747e-01 -2.6660204997201362e+01 -1.0799688793147710e+04 -1.6731690911599628e+03 +3.7649896761940785e+07 
+2.4000000000000008e+00 -5.9488457330451316e-01 +8.1192538976159874e+00 +4.0848471318965829e-01 -2.7561436780892269e+01 -1.0759872825540804e+04 +3.6879828648556704e+03 +3.7429422755775273e+07 
+2.5000000000000009e+00 -5.9488446276540330e-01 +8.1192725578157106e+00 +4.0679304509639058e-01 -2.8578560254089481e+01 -1.0716966157211555e+04 +9.6818908147461079e+03 +3.7199530532491736e+07 
+2.6000000000000010e+00 -5.9488435018379315e-01 +8.1192949709823914e+00 +4.0476641181514794e-01 -2.9699650441761037e+01 -1.0671271445634113e+04 +1.6240142912867590e+04 +3.6961319112827487e+07 
+2.7000000000000011e+00 -5.9488423563042370e-01 +8.1193208515620867e+00 +4.0242793952675537e-01 -3.0912782132756661e+01 -1.0623091355130713e+04 +2.3294325910183223e+04 +3.6715887561724178e+07 
+2.8000000000000012e+00 -5.9488411917602024e-01 +8.1193499139992280e+00 +3.9980075170305279e-01 -3.2206030043474023e+01 -1.0572728502936372e+04 +3.0776026102567201e+04 +3.6464334744498715e+07 
+2.9000000000000012e+00 -5.9488400089129057e-01 +8.1193818727425811e+00 +3.9690796843447496e-01 -3.3567469019294435e+01 -1.0520485446247416e+04 +3.8616830591501326e+04 +3.6207759266572304e+07 
+3.0000000000000013e+00 -5.9488388084690391e-01 +8.1194164422385171e+00 +3.9377270423055666e-01 -3.4985173800176369e+01 -1.0466664639575991e+04 +4.6748325804732100e+04 +3.5947259267080463e+07 
+3.1000000000000014e+00 -5.9488375911355362e-01 +8.1194533369313344e+00 +3.9041807478113810e-01 -3.6447219071874372e+01 -1.0411568562513043e+04 +5.5102097924721122e+04 +3.5683933029755861e+07 
+3.2000000000000015e+00 -5.9488363576186487e-01 +8.1194922712657291e+00 +3.8686718702182227e-01 -3.7941679515292378e+01 -1.0355499539247463e+04 +6.3609733111905953e+04 +3.5418878146006428e+07 
+3.3000000000000016e+00 -5.9488351086246571e-01 +8.1195329596824397e+00 +3.8314314589408677e-01 -3.9456629680965051e+01 -1.0298759854691378e+04 +7.2202816781036832e+04 +3.5153192034971528e+07 
+3.4000000000000017e+00 -5.9488338448593536e-01 +8.1195751166215118e+00 +3.7926904960704211e-01 -4.0980144091012697e+01 -1.0241651678403705e+04 +8.0812934209370243e+04 +3.4887971622747399e+07 
+3.5000000000000018e+00 -5.9488325670282549e-01 +8.1196184565258473e+00 +3.7526799077617179e-01 -4.2500297354021846e+01 -1.0184477075004859e+04 +8.9371671258270930e+04 +3.4624313361683287e+07 
+3.6000000000000019e+00 -5.9488312758366690e-01 +8.1196626938305805e+00 +3.7116305854499998e-01 -4.4005163842006645e+01 -1.0127538055703588e+04 +9.7810612436453375e+04 +3.4363313506419860e+07 
+3.7000000000000020e+00 -5.9488299719892301e-01 +8.1197075429693619e+00 +3.6697733165357538e-01 -4.5482817880577919e+01 -1.0071136439006286e+04 +1.0606134204303732e+05 +3.4106067433690608e+07 
+3.8000000000000020e+00 -5.9488286561905712e-01 +8.1197527183771285e+00 +3.6273388709832899e-01 -4.6921333830372227e+01 -1.0015574020405384e+04 +1.1405544464533916e+05 +3.3853670465321757e+07 
+3.9000000000000021e+00 -5.9488273291445393e-01 +8.1197979344834650e+00 +3.5845579063272331e-01 -4.8308785902245859e+01 -9.9611523915058278e+03 +1.2172450402610147e+05 +3.3607217005652748e+07 
+4.0000000000000018e+00 -5.9488259915545905e-01 +8.1198429057192989e+00 +3.5416610092756001e-01 -4.9633248349920379e+01 -9.9081730186687982e+03 +1.2900010428225447e+05 +3.3367800916806389e+07 
+4.1000000000000014e+00 -5.9488246455134330e-01 +8.1198873601778860e+00 +3.4988562426108821e-01 -5.0884589133741578e+01 -9.8568959050558806e+03 +1.3582467683628487e+05 +3.3136408142170701e+07 
+4.2000000000000011e+00 -5.9488232987763889e-01 +8.1199310853759936e+00 +3.4562727105943114e-01 -5.2059850551174335e+01 -9.8073967926647401e+03 +1.4218368159127189e+05 +3.2913449243860278e+07 
+4.3000000000000007e+00 -5.9488219605396453e-01 +8.1199738849398067e+00 +3.4140223168544459e-01 -5.3157873465560833e+01 -9.7597004328736712e+03 +1.4807326828438888e+05 +3.2699154110433206e+07 
+4.4000000000000004e+00 -5.9488206399997012e-01 +8.1200155624963255e+00 +3.3722170189763612e-01 -5.4177498819370989e+01 -9.7138316854254244e+03 +1.5348958710127234e+05 +3.2493753163892426e+07 
+4.5000000000000000e+00 -5.9488193463521610e-01 +8.1200559216783716e+00 +3.3309686695811425e-01 -5.5117567783154506e+01 -9.6698152103682278e+03 +1.5842878956627342e+05 +3.2297475874822520e+07 
+4.5999999999999996e+00 -5.9488180887925335e-01 +8.1200947661076608e+00 +3.2903891292442700e-01 -5.5976921278115455e+01 -9.6276756901209101e+03 +1.6288702579528643e+05 +3.2110551837794516e+07 
+4.6999999999999993e+00 -5.9488168765161975e-01 +8.1201318994110689e+00 +3.2505902553731231e-01 -5.6754400439556036e+01 -9.5874378016388673e+03 +1.6686044715700325e+05 +3.1933210619866274e+07 
+4.7999999999999989e+00 -5.9488157187177382e-01 +8.1201671252190195e+00 +3.2116838193271063e-01 -5.7448846577675496e+01 -9.5491260638750246e+03 +1.7034520605935875e+05 +3.1765681050388306e+07 
+4.8999999999999986e+00 -5.9488146245918960e-01 +8.1202002471520238e+00 +3.1737816356081572e-01 -5.8059100797215926e+01 -9.5127650821887401e+03 +1.7333745374542323e+05 +3.1608192376696747e+07 
+4.9999999999999982e+00 -5.9488136033325789e-01 +8.1202310688379793e+00 +3.1369954258928995e-01 -5.8584004503653233e+01 -9.4783792879840075e+03 +1.7583334325435632e+05 +3.1460973023448449e+07 
+5.0999999999999979e+00 -5.9488126641336336e-01 +8.1202593939015202e+00 +3.1014369240571721e-01 -5.9022399086216687e+01 -9.4459931378092242e+03 +1.7782902753677676e+05 +3.1324251533859868e+07 
+5.1999999999999975e+00 -5.9488118161883885e-01 +8.1202850259623780e+00 +3.0672178242367820e-01 -5.9373125886200839e+01 -9.4156310209310432e+03 +1.7932065930322712e+05 +3.1198256149659839e+07 
+5.2999999999999972e+00 -5.9488110686897333e-01 +8.1203077686513971e+00 +3.0344497845728446e-01 -5.9635026664444183e+01 -9.3873172609536741e+03 +1.8030439374752421e+05 +3.1083214802099850e+07 
+5.3999999999999968e+00 -5.9488104308300993e-01 +8.1203274255831790e+00 +3.0032444256767021e-01 -5.9806942807973989e+01 -9.3610761124811415e+03 +1.8077638392027604e+05 +3.0979355094716642e+07 
+5.4999999999999964e+00 -5.9488099118015969e-01 +8.1203438003814572e+00 +2.9737133592949777e-01 -5.9887716080885632e+01 -9.3369318212448561e+03 +1.8073278512776186e+05 +3.0886904602330651e+07 
+5.5999999999999961e+00 -5.9488095207959757e-01 +8.1203566966697647e+00 +2.9459681667662430e-01 -5.9876188336664285e+01 -9.3149085748699108e+03 +1.8016975319812997e+05 +3.0806090617369201e+07 
+5.6999999999999957e+00 -5.9488092670041715e-01 +8.1203659180662946e+00 +2.9201203609856813e-01 -5.9771201394957721e+01 -9.2950304395915336e+03 +1.7908344383626347e+05 +3.0737139869663745e+07 
+5.7999999999999954e+00 -5.9488091596169790e-01 +8.1203712681927058e+00 +2.8962814620499333e-01 -5.9571597290800554e+01 -9.2773214978573760e+03 +1.7747001403414938e+05 +3.0680279164211873e+07 
+5.8999999999999950e+00 -5.9488092078246857e-01 +8.1203725506657936e+00 +2.8745629531150818e-01 -5.9276218043738446e+01 -9.2618057671435399e+03 +1.7532562075968718e+05 +3.0635735004106183e+07 
+5.9999999999999947e+00 -5.9488094208168107e-01 +8.1203695691037812e+00 +2.8550762525598955e-01 -5.8883905826389501e+01 -9.2485071468774004e+03 +1.7264642190451120e+05 +3.0603733335720405e+07 
+6.0999999999999943e+00 -5.9488098043911697e-01 +8.1203622261813280e+00 +2.8378670903286801e-01 -5.8395551187280716e+01 -9.2373868189427121e+03 +1.6943999486603579e+05 +3.0584194677582648e+07 
+6.1999999999999940e+00 -5.9488103510031498e-01 +8.1203508105891871e+00 +2.8227103036950091e-01 -5.7820178525443133e+01 -9.2281361234015530e+03 +1.6576010091542333e+05 +3.0575667578911006e+07 
+6.2999999999999936e+00 -5.9488110498295999e-01 +8.1203357051293974e+00 +2.8093113716016044e-01 -5.7168835160562828e+01 -9.2203746162421521e+03 +1.6167221924059800e+05 +3.0576319913067192e+07 
+6.3999999999999932e+00 -5.9488118900483045e-01 +8.1203172926037226e+00 +2.7973758957198519e-01 -5.6452568373469219e+01 -9.2137220841851522e+03 +1.5724182892501677e+05 +3.0584320607286632e+07 
+6.4999999999999929e+00 -5.9488128608377622e-01 +8.1202959558218026e+00 +2.7866095718356276e-01 -5.5682425609712340e+01 -9.2077984880460172e+03 +1.5253440998936043e+05 +3.0597839371697806e+07 
+6.5999999999999925e+00 -5.9488139513769733e-01 +8.1202720775971979e+00 +2.7767181627416276e-01 -5.4869454369076223e+01 -9.2022239130083854e+03 +1.4761544275910233e+05 +3.0615046466867637e+07 
+6.6999999999999922e+00 -5.9488151508460363e-01 +8.1202460407445649e+00 +2.7674075706345796e-01 -5.4024702119137018e+01 -9.1966187024842657e+03 +1.4255040737271408e+05 +3.0634113328914601e+07 
+6.7999999999999918e+00 -5.9488164484258077e-01 +8.1202182280821180e+00 +2.7583837917660142e-01 -5.3159216368325829e+01 -9.1906033691715820e+03 +1.3740478421079853e+05 +3.0653212136918902e+07 
+6.8999999999999915e+00 -5.9488178332980501e-01 +8.1201890224377138e+00 +2.7493529495009350e-01 -5.2284044822774369e+01 -9.1837986710413570e+03 +1.3224405476062320e+05 +3.0670516209783364e+07 
+6.9999999999999911e+00 -5.9488192946453411e-01 +8.1201588066360380e+00 +2.7400212646219535e-01 -5.1410235051120765e+01 -9.1758255388791968e+03 +1.2713369978832928e+05 +3.0684199617287345e+07 
+7.0999999999999908e+00 -5.9488208216513250e-01 +8.1201279635153067e+00 +2.7300950996254258e-01 -5.0548834908415870e+01 -9.1663051695778722e+03 +1.2213920162833176e+05 +3.0692437644817013e+07 
+7.1999999999999904e+00 -5.9488224035005954e-01 +8.1200968759064498e+00 +2.7192809344425989e-01 -4.9710891979752063e+01 -9.1548589746561411e+03 +1.1732604110479094e+05 +3.0693406535873543e+07 
+7.2999999999999901e+00 -5.9488240293786521e-01 +8.1200659266578530e+00 +2.7072853686801596e-01 -4.8907454257781048e+01 -9.1411085874137952e+03 +1.1275970135335258e+05 +3.0685283530396458e+07 
+7.3999999999999897e+00 -5.9488256884724200e-01 +8.1200354986160530e+00 +2.6938151855386444e-01 -4.8149569616819640e+01 -9.1246759850317212e+03 +1.0850566488044854e+05 +3.0666247446612298e+07 
+7.4999999999999893e+00 -5.9488273699693628e-01 +8.1200059746316899e+00 +2.6785772360279975e-01 -4.7448285941015875e+01 -9.1051832646204002e+03 +1.0462941418543819e+05 +3.0634477604591366e+07 
+7.5999999999999890e+00 -5.9488290630586282e-01 +8.1199777375643230e+00 +2.6612785859773508e-01 -4.6814651293050943e+01 -9.0822529244572834e+03 +1.0119643283164046e+05 +3.0588155166965514e+07 
+7.6999999999999886e+00 -5.9488307569300647e-01 +8.1199511702760425e+00 +2.6416263906131654e-01 -4.6259713706595257e+01 -9.0555076244953634e+03 +9.8272204188821546e+04 +3.0525461995037496e+07 
+7.7999999999999883e+00 -5.9488324407750959e-01 +8.1199266556375118e+00 +2.6193280096151850e-01 -4.5794521372597728e+01 -9.0245704069653402e+03 +9.5922212555351769e+04 +3.0444581702870883e+07 
+7.8999999999999879e+00 -5.9488341037861703e-01 +8.1199045765219431e+00 +2.5940909307488597e-01 -4.5430122449722276e+01 -8.9890645485520654e+03 +9.4211942022003568e+04 +3.0343698946095835e+07 
+7.9999999999999876e+00 -5.9488357351569432e-01 +8.1198853158083057e+00 +2.5656227957073779e-01 -4.5177565131158651e+01 -8.9486136062341247e+03 +9.3206876797457997e+04 +3.0220999625227198e+07 
+8.0999999999999872e+00 -5.9488373272480444e-01 +8.1198691680835076e+00 +2.5337591408833060e-01 -4.5044797814238706e+01 -8.9030037705456725e+03 +9.2953490795961392e+04 +3.0075303867508743e+07 
+8.1999999999999869e+00 -5.9488388846318274e-01 +8.1198560818229950e+00 +2.4988299776557799e-01 -4.5027455002186343e+01 -8.8527088899774117e+03 +9.3422427792860180e+04 +2.9908353680812966e+07 
+8.2999999999999865e+00 -5.9488404148216034e-01 +8.1198459202273803e+00 +2.4612847014338801e-01 -4.5118086992061208e+01 -8.7983843636649308e+03 +9.4565239555658598e+04 +2.9722720509922929e+07 
+8.3999999999999861e+00 -5.9488419253306712e-01 +8.1198385464895146e+00 +2.4215726850660457e-01 -4.5309243851094699e+01 -8.7406855560543154e+03 +9.6333476562389289e+04 +2.9520975708530251e+07 
+8.4999999999999858e+00 -5.9488434236715704e-01 +8.1198338237853722e+00 +2.3801431820874613e-01 -4.5593475154416488e+01 -8.6802676057526842e+03 +9.8678686496155133e+04 +2.9305689605473123e+07 
+8.5999999999999854e+00 -5.9488449173564584e-01 +8.1198316152746752e+00 +2.3374453729248643e-01 -4.5963330023962200e+01 -8.6177855130344760e+03 +1.0155241451781710e+05 +2.9079431922432501e+07 
+8.6999999999999851e+00 -5.9488464138974295e-01 +8.1198317841052052e+00 +2.2939284026662521e-01 -4.6411357256697336e+01 -8.5538942118650339e+03 +1.0490620402355718e+05 +2.8844772120029662e+07 
+8.7999999999999847e+00 -5.9488479208054845e-01 +8.1198341934064207e+00 +2.2500412506218986e-01 -4.6930105128907968e+01 -8.4892483209675611e+03 +1.0869159548514681e+05 +2.8604278211633474e+07 
+8.8999999999999844e+00 -5.9488494455917917e-01 +8.1198387062938746e+00 +2.2062328956696284e-01 -4.7512121531091694e+01 -8.4245024624055059e+03 +1.1286012725009224e+05 +2.8360518291298456e+07 
+8.9999999999999840e+00 -5.9488509957666402e-01 +8.1198451858634133e+00 +2.1629521657273584e-01 -4.8149953795806645e+01 -8.3603109668364759e+03 +1.1736333453018115e+05 +2.8116059113397185e+07 
+9.0999999999999837e+00 -5.9488525788399937e-01 +8.1198534951973045e+00 +2.1206478276970575e-01 -4.8836148892567017e+01 -8.2973280548997373e+03 +1.2215275058487779e+05 +2.7873466981943268e+07 
+9.1999999999999833e+00 -5.9488542023211344e-01 +8.1198634973606101e+00 +2.0797685304188382e-01 -4.9563253288561590e+01 -8.2362077216668131e+03 +1.2717990581560721e+05 +2.7635307183763780e+07 
+9.2999999999999829e+00 -5.9488558737190633e-01 +8.1198750553955641e+00 +2.0407628533588060e-01 -5.0323812828285938e+01 -8.1776038317095354e+03 +1.3239632719571190e+05 +2.7404144452657901e+07 
+9.3999999999999826e+00 -5.9488576005419691e-01 +8.1198880323333622e+00 +2.0040792415235742e-01 -5.1110373043759083e+01 -8.1221699935389888e+03 +1.3775353996677647e+05 +2.7182542364048075e+07 
+9.4999999999999822e+00 -5.9488593902975817e-01 +8.1199022911812477e+00 +1.9701660538934143e-01 -5.1915478793153802e+01 -8.0705596572027589e+03 +1.4320306560006179e+05 +2.6973063819919292e+07 
+9.5999999999999819e+00 -5.9488612504931193e-01 +8.1199176949279774e+00 +1.9394715455278808e-01 -5.2731674427532781e+01 -8.0234260727964111e+03 +1.4869642277297593e+05 +2.6778270830906324e+07 
+9.6999999999999815e+00 -5.9488631886350596e-01 +8.1199341065439654e+00 +1.9124438473275740e-01 -5.3551503784225837e+01 -7.9814222569454596e+03 +1.5418512730398343e+05 +2.6600724371810470e+07 
+9.7999999999999812e+00 -5.9488652122293517e-01 +8.1199513889798229e+00 +1.8895309863362081e-01 -5.4367510137449344e+01 -7.9452010301542314e+03 +1.5962069185343265e+05 +2.6442984559375457e+07 
+9.8999999999999808e+00 -5.9488673287812788e-01 +8.1199694051632871e+00 +1.8711808695443058e-01 -5.5172236138482710e+01 -7.9154149845488464e+03 +1.6495462565740719e+05 +2.6307610494137812e+07 
+9.9999999999999805e+00 -5.9488695457953633e-01 +8.1199880180075557e+00 +1.8578412736403130e-01 -5.5958224086099918e+01 -7.8927164772240794e+03 +1.7013843611235882e+05 +2.6197160269735709e+07 
+1.0099999999999980e+01 -5.9488718689675690e-01 +8.1200070799698967e+00 +1.8498031203753684e-01 -5.6718777994591264e+01 -7.8775420196414088e+03 +1.7512951594674165e+05 +2.6113435360559665e+07 
