# field on trajectory
# s[mm] rx[mm] ry[mm] rz[mm] bx[T] by[T] bz[T]
-0.0000000000000000e+00 +8.1530000000000094e+00 +0.0000000000000000e+00 -0.0000000000000000e+00 -2.9845263343169424e-02 -5.6516917740515671e-01 +5.7657201696485784e-03
-1.0000000000000001e-01 +8.1529997159377707e+00 +0.0000000000000000e+00 -1.0008006405070299e-01 -2.9845448543649560e-02 -5.6517002194821664e-01 +5.7655949376820134e-03
-2.0000000000000001e-01 +8.1529988637557800e+00 +0.0000000000000000e+00 -2.0016012809818201e-01 -2.9845635620808518e-02 -5.6517086851681086e-01 +5.7654675977486672e-03
-2.9999999999999999e-01 +8.1529974434524792e+00 +0.0000000000000000e+00 -3.0024019213920999e-01 -2.9845824461039745e-02 -5.6517171580908609e-01 +5.7653380452775196e-03
-4.0000000000000002e-01 +8.1529954550242092e+00 +0.0000000000000000e+00 -4.0032025617056399e-01 -2.9846014950724829e-02 -5.6517256252321146e-01 +5.7652061756972052e-03
-5.0000000000000000e-01 +8.1529928984782600e+00 +0.0000000000000000e+00 -5.0040032018901703e-01 -2.9846206976229483e-02 -5.6517340735727162e-01 +5.7650718844348709e-03
-5.9999999999999998e-01 +8.1529897738146193e+00 +0.0000000000000000e+00 -6.0048038419134497e-01 -2.9846400423912612e-02 -5.6517424900940616e-01 +5.7649350669175840e-03
-6.9999999999999996e-01 +8.1529860810223909e+00 +0.0000000000000000e+00 -7.0056044817432195e-01 -2.9846595180129311e-02 -5.6517508617783152e-01 +5.7647956185725444e-03
-8.0000000000000004e-01 +8.1529818201124709e+00 +0.0000000000000000e+00 -8.0064051213472498e-01 -2.9846791131218697e-02 -5.6517591756058405e-01 +5.7646534348243499e-03
-9.0000000000000002e-01 +8.1529769910812302e+00 +0.0000000000000000e+00 -9.0072057606932698e-01 -2.9846988163520466e-02 -5.6517674185579769e-01 +5.7645084110978630e-03
-1.0000000000000000e+00 +8.1529715939250291e+00 +0.0000000000000000e+00 -1.0008006399749001e+00 -2.9847186163370423e-02 -5.6517755776158674e-01 +5.7643604428169702e-03
-1.1000000000000001e+00 +8.1529656286511507e+00 +0.0000000000000000e+00 -1.1008807038482300e+00 -2.9847385017097237e-02 -5.6517836397595700e-01 +5.7642094254035927e-03
-1.2000000000000000e+00 +8.1529590952522994e+00 +0.0000000000000000e+00 -1.2009607676860801e+00 -2.9847584611034685e-02 -5.6517915919699913e-01 +5.7640552542796916e-03
-1.3000000000000000e+00 +8.1529519937357708e+00 +0.0000000000000000e+00 -1.3010408314852300e+00 -2.9847784831510862e-02 -5.6517994212265865e-01 +5.7638978248648236e-03
-1.3999999999999999e+00 +8.1529443240979198e+00 +0.0000000000000000e+00 -1.4011208952424601e+00 -2.9847985564860294e-02 -5.6518071145092952e-01 +5.7637370325781204e-03
-1.5000000000000000e+00 +8.1529360863350995e+00 +0.0000000000000000e+00 -1.5012009589545301e+00 -2.9848186697420901e-02 -5.6518146587976459e-01 +5.7635727728373434e-03
-1.6000000000000001e+00 +8.1529272804509691e+00 +0.0000000000000000e+00 -1.6012810226182299e+00 -2.9848388115532403e-02 -5.6518220410701636e-01 +5.7634049410581947e-03
-1.7000000000000000e+00 +8.1529179064491508e+00 +0.0000000000000000e+00 -1.7013610862303301e+00 -2.9848589705540773e-02 -5.6518292483048693e-01 +5.7632334326548317e-03
-1.8000000000000000e+00 +8.1529079643223703e+00 +0.0000000000000000e+00 -1.8014411497875999e+00 -2.9848791353804333e-02 -5.6518362674801081e-01 +5.7630581430406927e-03
-1.8999999999999999e+00 +8.1528974540779000e+00 +0.0000000000000000e+00 -1.9015212132868200e+00 -2.9848992946684534e-02 -5.6518430855725155e-01 +5.7628789676263271e-03
-2.0000000000000000e+00 +8.1528863757084800e+00 +0.0000000000000000e+00 -2.0016012767247702e+00 -2.9849194370559658e-02 -5.6518496895592663e-01 +5.7626958018217453e-03
-2.1000000000000001e+00 +8.1528747292177304e+00 +0.0000000000000000e+00 -2.1016813400982199e+00 -2.9849395524588020e-02 -5.6518560725622780e-01 +5.7625085532396004e-03
-2.2000000000000002e+00 +8.1528625146056601e+00 +0.0000000000000000e+00 -2.2017614034039301e+00 -2.9849596356637278e-02 -5.6518622511364058e-01 +5.7623171760250091e-03
-2.2999999999999998e+00 +8.1528497318759001e+00 +0.0000000000000000e+00 -2.3018414666387002e+00 -2.9849796826186485e-02 -5.6518682474197002e-01 +5.7621216354088187e-03
-2.3999999999999999e+00 +8.1528363810211903e+00 +0.0000000000000000e+00 -2.4019215297993002e+00 -2.9849996892729078e-02 -5.6518740835509007e-01 +5.7619218966204200e-03
-2.5000000000000000e+00 +8.1528224620451493e+00 +0.0000000000000000e+00 -2.5020015928824901e+00 -2.9850196515764729e-02 -5.6518797816677813e-01 +5.7617179248858905e-03
-2.6000000000000001e+00 +8.1528079749477893e+00 +0.0000000000000000e+00 -2.6020816558850601e+00 -2.9850395654806076e-02 -5.6518853639082822e-01 +5.7615096854290570e-03
-2.7000000000000002e+00 +8.1527929197291105e+00 +0.0000000000000000e+00 -2.7021617188037701e+00 -2.9850594269378028e-02 -5.6518908524102607e-01 +5.7612971434710964e-03
-2.7999999999999998e+00 +8.1527772963891003e+00 +0.0000000000000000e+00 -2.8022417816354102e+00 -2.9850792319018656e-02 -5.6518962693115093e-01 +5.7610802642304500e-03
-2.8999999999999999e+00 +8.1527611049277802e+00 +0.0000000000000000e+00 -2.9023218443767500e+00 -2.9850989763279875e-02 -5.6519016367497699e-01 +5.7608590129226969e-03
-3.0000000000000000e+00 +8.1527443453451305e+00 +0.0000000000000000e+00 -3.0024019070245598e+00 -2.9851186561728315e-02 -5.6519069768627728e-01 +5.7606333547604712e-03
-3.1000000000000001e+00 +8.1527270176411495e+00 +0.0000000000000000e+00 -3.1024819695756198e+00 -2.9851382673946103e-02 -5.6519123117882297e-01 +5.7604032549533482e-03
-3.2000000000000002e+00 +8.1527091218158603e+00 +0.0000000000000000e+00 -3.2025620320267101e+00 -2.9851578059531668e-02 -5.6519176636638913e-01 +5.7601686787077432e-03
-3.2999999999999998e+00 +8.1526906578692397e+00 +0.0000000000000000e+00 -3.3026420943745900e+00 -2.9851772678100522e-02 -5.6519230546275290e-01 +5.7599295912268101e-03
-3.3999999999999999e+00 +8.1526716258013003e+00 +0.0000000000000000e+00 -3.4027221566160502e+00 -2.9851966489286095e-02 -5.6519285068169922e-01 +5.7596859577103308e-03
-3.5000000000000000e+00 +8.1526520256120403e+00 +0.0000000000000000e+00 -3.5028022187478500e+00 -2.9852159452740522e-02 -5.6519340423702091e-01 +5.7594377433546366e-03
-3.6000000000000001e+00 +8.1526318572978198e+00 +0.0000000000000000e+00 -3.6028822807667802e+00 -2.9852351528136915e-02 -5.6519396834254865e-01 +5.7591849133527637e-03
-3.7000000000000002e+00 +8.1526111208659096e+00 +0.0000000000000000e+00 -3.7029623426696099e+00 -2.9852542675164198e-02 -5.6519454521204249e-01 +5.7589274328932035e-03
-3.7999999999999998e+00 +8.1525898163126804e+00 +0.0000000000000000e+00 -3.8030424044531101e+00 -2.9852732853536859e-02 -5.6519513705936020e-01 +5.7586652671615494e-03
-3.8999999999999999e+00 +8.1525679436344909e+00 +0.0000000000000000e+00 -3.9031224661140600e+00 -2.9852922022991370e-02 -5.6519574609837786e-01 +5.7583983813395126e-03
-4.0000000000000000e+00 +8.1525455028386205e+00 +0.0000000000000000e+00 -4.0032025276492398e+00 -2.9853110143281774e-02 -5.6519637454288774e-01 +5.7581267406045010e-03
-4.0999999999999996e+00 +8.1525224939177896e+00 +0.0000000000000000e+00 -4.1032825890554099e+00 -2.9853297156210025e-02 -5.6519702401661676e-01 +5.7578503288412530e-03
-4.2000000000000002e+00 +8.1524989168792708e+00 +0.0000000000000000e+00 -4.2033626503293604e+00 -2.9853482938232725e-02 -5.6519769399828235e-01 +5.7575691979292716e-03
-4.2999999999999998e+00 +8.1524747717157897e+00 +0.0000000000000000e+00 -4.3034427114678504e+00 -2.9853667350959217e-02 -5.6519838347965368e-01 +5.7572834151935924e-03
-4.4000000000000004e+00 +8.1524500584346207e+00 +0.0000000000000000e+00 -4.4035227724676700e+00 -2.9853850255976411e-02 -5.6519909145245839e-01 +5.7569930479606313e-03
-4.5000000000000000e+00 +8.1524247770285001e+00 +0.0000000000000000e+00 -4.5036028333255800e+00 -2.9854031514859315e-02 -5.6519981690861087e-01 +5.7566981635608335e-03
-4.5999999999999996e+00 +8.1523989275046898e+00 +0.0000000000000000e+00 -4.6036828940383696e+00 -2.9854210989157318e-02 -5.6520055883999132e-01 +5.7563988293265738e-03
-4.7000000000000002e+00 +8.1523725098559208e+00 +0.0000000000000000e+00 -4.7037629546028104e+00 -2.9854388540404803e-02 -5.6520131623867675e-01 +5.7560951125948216e-03
-4.7999999999999998e+00 +8.1523455240894709e+00 +0.0000000000000000e+00 -4.8038430150156701e+00 -2.9854564030107545e-02 -5.6520208809671901e-01 +5.7557870807050599e-03
-4.9000000000000004e+00 +8.1523179701980606e+00 +0.0000000000000000e+00 -4.9039230752737302e+00 -2.9854737319753136e-02 -5.6520287340637576e-01 +5.7554748010019150e-03
-5.0000000000000000e+00 +8.1522898481889605e+00 +0.0000000000000000e+00 -5.0040031353737602e+00 -2.9854908270797429e-02 -5.6520367115988746e-01 +5.7551583408330942e-03
-5.0999999999999996e+00 +8.1522611580549000e+00 +0.0000000000000000e+00 -5.1040831953125396e+00 -2.9855076744675104e-02 -5.6520448034970971e-01 +5.7548377675520138e-03
-5.2000000000000002e+00 +8.1522318997995207e+00 +0.0000000000000000e+00 -5.2041632550868497e+00 -2.9855242602787463e-02 -5.6520529996831936e-01 +5.7545131485160321e-03
-5.2999999999999998e+00 +8.1522020734228100e+00 +0.0000000000000000e+00 -5.3042433146934496e+00 -2.9855405706507004e-02 -5.6520612900833167e-01 +5.7541845510879017e-03
-5.4000000000000004e+00 +8.1521716789247893e+00 +0.0000000000000000e+00 -5.4043233741291203e+00 -2.9855565917174288e-02 -5.6520696646247659e-01 +5.7538520426357580e-03
-5.5000000000000000e+00 +8.1521407163090807e+00 +0.0000000000000000e+00 -5.5044034333906504e+00 -2.9855723096094973e-02 -5.6520781132357500e-01 +5.7535156905331062e-03
-5.5999999999999996e+00 +8.1521091855684098e+00 +0.0000000000000000e+00 -5.6044834924747899e+00 -2.9855877104544244e-02 -5.6520866258465741e-01 +5.7531755621602872e-03
-5.7000000000000002e+00 +8.1520770867064094e+00 +0.0000000000000000e+00 -5.7045635513783299e+00 -2.9856027803756201e-02 -5.6520951923879648e-01 +5.7528317249029865e-03
-5.7999999999999998e+00 +8.1520444197231008e+00 +0.0000000000000000e+00 -5.8046436100980499e+00 -2.9856175054928397e-02 -5.6521038027922654e-01 +5.7524842461536985e-03
-5.9000000000000004e+00 +8.1520111846184609e+00 +0.0000000000000000e+00 -5.9047236686307096e+00 -2.9856318719218761e-02 -5.6521124469931894e-01 +5.7521331933117108e-03
-5.9999999999999902e+00 +8.1519773813925003e+00 +0.0000000000000000e+00 -6.0048037269731003e+00 -2.9856458657761483e-02 -5.6521211149259520e-01 +5.7517786337857868e-03
-6.0999999999999899e+00 +8.1519430100452208e+00 +0.0000000000000000e+00 -6.1048837851219799e+00 -2.9856594912999811e-02 -5.6521297972976614e-01 +5.7514206599215169e-03
-6.1999999999999904e+00 +8.1519080705766100e+00 +0.0000000000000000e+00 -6.2049638430741396e+00 -2.9856728155689568e-02 -5.6521384874856395e-01 +5.7510594504450582e-03
-6.2999999999999901e+00 +8.1518725629866804e+00 +0.0000000000000000e+00 -6.3050439008263499e+00 -2.9856859192562316e-02 -5.6521471794446176e-01 +5.7506952027780878e-03
-6.3999999999999897e+00 +8.1518364872754301e+00 +0.0000000000000000e+00 -6.4051239583753699e+00 -2.9856988830333386e-02 -5.6521558671288141e-01 +5.7503281143429846e-03
-6.4999999999999902e+00 +8.1517998434428591e+00 +0.0000000000000000e+00 -6.5052040157180002e+00 -2.9857117875701535e-02 -5.6521645444918878e-01 +5.7499583825628099e-03
-6.5999999999999899e+00 +8.1517626314889604e+00 +0.0000000000000000e+00 -6.6052840728510001e+00 -2.9857247135348562e-02 -5.6521732054869189e-01 +5.7495862048612999e-03
-6.6999999999999904e+00 +8.1517248514137499e+00 +0.0000000000000000e+00 -6.7053641297711399e+00 -2.9857377415938986e-02 -5.6521818440663529e-01 +5.7492117786628718e-03
-6.7999999999999901e+00 +8.1516865032135701e+00 +0.0000000000000000e+00 -6.8054441864752100e+00 -2.9857509524121160e-02 -5.6521904541822698e-01 +5.7488353013928966e-03
-6.8999999999999897e+00 +8.1516475868957095e+00 +0.0000000000000000e+00 -6.9055242429599701e+00 -2.9857644266520871e-02 -5.6521990297851932e-01 +5.7484569704765271e-03
-6.9999999999999902e+00 +8.1516081024565192e+00 +0.0000000000000000e+00 -7.0056042992222096e+00 -2.9857782449750108e-02 -5.6522075648257708e-01 +5.7480769833404529e-03
-7.0999999999999899e+00 +8.1515680498960101e+00 +0.0000000000000000e+00 -7.1056843552586999e+00 -2.9857924880400580e-02 -5.6522160532535892e-01 +5.7476955374117181e-03
-7.1999999999999904e+00 +8.1515274292141804e+00 +0.0000000000000000e+00 -7.2057644110662000e+00 -2.9858072365044924e-02 -5.6522244890174400e-01 +5.7473128301180143e-03
-7.2999999999999901e+00 +8.1514862404073902e+00 +0.0000000000000000e+00 -7.3058444666415099e+00 -2.9858225710237839e-02 -5.6522328660655430e-01 +5.7469290588879575e-03
-7.3999999999999897e+00 +8.1514444834829192e+00 +0.0000000000000000e+00 -7.4059245219813796e+00 -2.9858385722509630e-02 -5.6522411783444049e-01 +5.7465444211499172e-03
-7.4999999999999902e+00 +8.1514021584334806e+00 +0.0000000000000000e+00 -7.5060045770826100e+00 -2.9858553208376552e-02 -5.6522494198007400e-01 +5.7461591143340637e-03
-7.5999999999999899e+00 +8.1513592652663593e+00 +0.0000000000000000e+00 -7.6060846319419504e+00 -2.9858728974328199e-02 -5.6522575843791811e-01 +5.7457733358700150e-03
-7.6999999999999904e+00 +8.1513158039779192e+00 +0.0000000000000000e+00 -7.7061646865561997e+00 -2.9858913826837846e-02 -5.6522656660242265e-01 +5.7453872831888736e-03
-7.7999999999999901e+00 +8.1512717745681602e+00 +0.0000000000000000e+00 -7.8062447409221098e+00 -2.9859108572356009e-02 -5.6522736586790678e-01 +5.7450011537220728e-03
-7.8999999999999897e+00 +8.1512271770334301e+00 +0.0000000000000000e+00 -7.9063247950364799e+00 -2.9859314017313031e-02 -5.6522815562861106e-01 +5.7446151449019210e-03
-7.9999999999999902e+00 +8.1511820113773901e+00 +0.0000000000000000e+00 -8.0064048488960609e+00 -2.9859530968022817e-02 -5.6522893527865059e-01 +5.7442294541443792e-03
-8.0999999999999908e+00 +8.1511362776036496e+00 +0.0000000000000000e+00 -8.1064849024976393e+00 -2.9859759810705006e-02 -5.6522970439209230e-01 +5.7438442036662658e-03
-8.1999999999999904e+00 +8.1510899757086008e+00 +0.0000000000000000e+00 -8.2065649558379903e+00 -2.9859999543713232e-02 -5.6523046313788716e-01 +5.7434592672322782e-03
-8.2999999999999901e+00 +8.1510431056885899e+00 +0.0000000000000000e+00 -8.3066450089139003e+00 -2.9860248879220001e-02 -5.6523121180762215e-01 +5.7430744673648646e-03
-8.3999999999999897e+00 +8.1509956675508892e+00 +0.0000000000000000e+00 -8.4067250617221205e+00 -2.9860506529446704e-02 -5.6523195069274723e-01 +5.7426896265824184e-03
-8.4999999999999893e+00 +8.1509476612882299e+00 +0.0000000000000000e+00 -8.5068051142594392e+00 -2.9860771206676115e-02 -5.6523268008477001e-01 +5.7423045674012095e-03
-8.5999999999999908e+00 +8.1508990869078808e+00 +0.0000000000000000e+00 -8.6068851665226305e+00 -2.9861041623242213e-02 -5.6523340027502866e-01 +5.7419191123329145e-03
-8.6999999999999904e+00 +8.1508499444025801e+00 +0.0000000000000000e+00 -8.7069652185084596e+00 -2.9861316491544165e-02 -5.6523411155491698e-01 +5.7415330838868732e-03
-8.7999999999999794e+00 +8.1508002337759500e+00 +0.0000000000000000e+00 -8.8070452702137203e+00 -2.9861594524037673e-02 -5.6523481421568389e-01 +5.7411463045678865e-03
-8.8999999999999808e+00 +8.1507499550316407e+00 +0.0000000000000000e+00 -8.9071253216351796e+00 -2.9861874433241387e-02 -5.6523550854851767e-01 +5.7407585968770047e-03
-8.9999999999999805e+00 +8.1506991081623692e+00 +0.0000000000000000e+00 -9.0072053727696098e+00 -2.9862154931743438e-02 -5.6523619484462917e-01 +5.7403697833122835e-03
-9.0999999999999801e+00 +8.1506476931717806e+00 +0.0000000000000000e+00 -9.1072854236137797e+00 -2.9862434732194198e-02 -5.6523687339508022e-01 +5.7399796863669061e-03
-9.1999999999999797e+00 +8.1505957100635005e+00 +0.0000000000000000e+00 -9.2073654741644795e+00 -2.9862712547312768e-02 -5.6523754449086705e-01 +5.7395881285299526e-03
-9.2999999999999794e+00 +8.1505431588302599e+00 +0.0000000000000000e+00 -9.3074455244184708e+00 -2.9862987089893437e-02 -5.6523820842300365e-01 +5.7391949322871645e-03
-9.3999999999999808e+00 +8.1504900394757005e+00 +0.0000000000000000e+00 -9.4075255743725297e+00 -2.9863257072798455e-02 -5.6523886548235003e-01 +5.7387999201190566e-03
-9.4999999999999805e+00 +8.1504363520034495e+00 +0.0000000000000000e+00 -9.5076056240234408e+00 -2.9863521208964641e-02 -5.6523951595969679e-01 +5.7384029145017071e-03
-9.5999999999999801e+00 +8.1503820964062506e+00 +0.0000000000000000e+00 -9.6076856733679694e+00 -2.9863778211409668e-02 -5.6524016014584744e-01 +5.7380037379074975e-03
-9.6999999999999797e+00 +8.1503272726913600e+00 +0.0000000000000000e+00 -9.7077657224029004e+00 -2.9864026793223499e-02 -5.6524079833141871e-01 +5.7376022128029494e-03
-9.7999999999999794e+00 +8.1502718808515109e+00 +0.0000000000000000e+00 -9.8078457711250007e+00 -2.9864265667582407e-02 -5.6524143080706557e-01 +5.7371981616509710e-03
-9.8999999999999808e+00 +8.1502159208903304e+00 +0.0000000000000000e+00 -9.9079258195310498e+00 -2.9864493547740213e-02 -5.6524205786328263e-01 +5.7367914069086654e-03
-9.9999999999999805e+00 +8.1501593928078400e+00 +0.0000000000000000e+00 -1.0008005867617801e+01 -2.9864709147227109e-02 -5.6524267979055376e-01 +5.7363817710622180e-03
-1.0100000000000000e+01 +8.1501022966040200e+00 +0.0000000000000000e+00 -1.0108085915382100e+01 -2.9864911648188667e-02 -5.6524329697736997e-01 +5.7359691596561187e-03
-1.0199999999999999e+01 +8.1500446322825209e+00 +0.0000000000000000e+00 -1.0208165962820599e+01 -2.9865101709249806e-02 -5.6524391012124908e-01 +5.7355537399841538e-03
-1.0300000000000001e+01 +8.1499863998360507e+00 +0.0000000000000000e+00 -1.0308246009930199e+01 -2.9865280279092972e-02 -5.6524451998056646e-01 +5.7351357307717718e-03
-1.0400000000000000e+01 +8.1499275992682705e+00 +0.0000000000000000e+00 -1.0408326056707599e+01 -2.9865448306336650e-02 -5.6524512731366205e-01 +5.7347153507439795e-03
-1.0500000000000000e+01 +8.1498682305791608e+00 +0.0000000000000000e+00 -1.0508406103149600e+01 -2.9865606739539818e-02 -5.6524573287895585e-01 +5.7342928186265357e-03
-1.0600000000000000e+01 +8.1498082937723701e+00 +0.0000000000000000e+00 -1.0608486149253000e+01 -2.9865756527197172e-02 -5.6524633743489217e-01 +5.7338683531453901e-03
-1.0699999999999999e+01 +8.1497477888406102e+00 +0.0000000000000000e+00 -1.0708566195014500e+01 -2.9865898617743504e-02 -5.6524694174005496e-01 +5.7334421730278742e-03
-1.0800000000000001e+01 +8.1496867157875403e+00 +0.0000000000000000e+00 -1.0808646240430900e+01 -2.9866033959542935e-02 -5.6524754655299903e-01 +5.7330144970009706e-03
-1.0900000000000000e+01 +8.1496250746131391e+00 +0.0000000000000000e+00 -1.0908726285499000e+01 -2.9866163500893293e-02 -5.6524815263236672e-01 +5.7325855437925077e-03
-1.1000000000000000e+01 +8.1495628653174208e+00 +0.0000000000000000e+00 -1.1008806330215601e+01 -2.9866288190022846e-02 -5.6524876073685870e-01 +5.7321555321308880e-03
-1.1100000000000000e+01 +8.1495000879040198e+00 +0.0000000000000000e+00 -1.1108886374577500e+01 -2.9866408975087144e-02 -5.6524937162520883e-01 +5.7317246807448109e-03
-1.1199999999999999e+01 +8.1494367423620098e+00 +0.0000000000000000e+00 -1.1208966418581401e+01 -2.9866526804174925e-02 -5.6524998605632670e-01 +5.7312932083647778e-03
-1.1300000000000001e+01 +8.1493728287059604e+00 +0.0000000000000000e+00 -1.1309046462224000e+01 -2.9866642625289673e-02 -5.6525060478898881e-01 +5.7308613337198689e-03
-1.1400000000000000e+01 +8.1493083469249505e+00 +0.0000000000000000e+00 -1.1409126505502300e+01 -2.9866757386369201e-02 -5.6525122858223542e-01 +5.7304292755418849e-03
-1.1500000000000000e+01 +8.1492432970226201e+00 +0.0000000000000000e+00 -1.1509206548412800e+01 -2.9866872035267247e-02 -5.6525185819506074e-01 +5.7299972525621410e-03
-1.1600000000000000e+01 +8.1491776789989707e+00 +0.0000000000000000e+00 -1.1609286590952600e+01 -2.9866987519759403e-02 -5.6525249438655700e-01 +5.7295654835129483e-03
-1.1699999999999999e+01 +8.1491114928576298e+00 +0.0000000000000000e+00 -1.1709366633118099e+01 -2.9867104787538349e-02 -5.6525313791585963e-01 +5.7291341871270529e-03
