# multipoles
# s[mm] polynom_b[n=0][T/m^n] polynom_b[n=1][T/m^n] polynom_b[n=2][T/m^n] polynom_b[n=3][T/m^n] polynom_b[n=4][T/m^n] polynom_b[n=5][T/m^n] polynom_b[n=6][T/m^n] 
+0.0000000000000000e+00 -5.3639596193744754e-01 +7.3539742679678852e+00 -9.0315035053374959e-01 +2.1457237328351770e+01 +1.6301177310758641e+04 -2.8015441661291005e+05 -8.1605652830898598e+07 
+1.0000000000000001e-01 -5.3639591137653053e-01 +7.3539885812090597e+00 -9.1141524861832213e-01 +2.0957543308531648e+01 +1.6402046538897765e+04 -2.7683143091843114e+05 -8.1932820017659634e+07 
+2.0000000000000001e-01 -5.3639586127648875e-01 +7.3540005491853933e+00 -9.1981714342846943e-01 +2.0503769186965435e+01 +1.6505642534805305e+04 -2.7373353750651376e+05 -8.2270679097013503e+07 
+2.9999999999999999e-01 -5.3639581291097149e-01 +7.3540101887459688e+00 -9.2828210910947895e-01 +2.0096629498243601e+01 +1.6610825457325092e+04 -2.7086752815544722e+05 -8.2614884074275449e+07 
+4.0000000000000002e-01 -5.3639576755364049e-01 +7.3540175167396757e+00 -9.3673622035113779e-01 +1.9736838752864330e+01 +1.6716455474024744e+04 -2.6824019443002885e+05 -8.2961088989617258e+07 
+5.0000000000000000e-01 -5.3639572647803946e-01 +7.3540225500107939e+00 -9.4510555608832292e-01 +1.9425111597391520e+01 +1.6821392831636615e+04 -2.6585832868220238e+05 -8.3304948256869808e+07 
+5.9999999999999998e-01 -5.3639569095777695e-01 +7.3540253054067275e+00 -9.5331619317615479e-01 +1.9162162576154799e+01 +1.6924497732007389e+04 -2.6372872263283475e+05 -8.3642116060768530e+07 
+6.9999999999999996e-01 -5.3639566226653523e-01 +7.3540257997725105e+00 -9.6129420968778245e-01 +1.8948706283828685e+01 +1.7024630403256244e+04 -2.6185816822412692e+05 -8.3968246718296289e+07 
+8.0000000000000004e-01 -5.3639564167782006e-01 +7.3540240499461627e+00 -9.6896568500894287e-01 +1.8785457515881156e+01 +1.7120651093679542e+04 -2.6025345851365168e+05 -8.4278994628992096e+07 
+9.0000000000000002e-01 -5.3639563046521010e-01 +7.3540200727657759e+00 -9.7625670297717360e-01 +1.8673131057666470e+01 +1.7211420136081568e+04 -2.5892138644780853e+05 -8.4570014591039792e+07 
+1.0000000000000000e+00 -5.3639562990230705e-01 +7.3540138850637424e+00 -9.8309334420763839e-01 +1.8612441850118962e+01 +1.7295797799904547e+04 -2.5786874578376621e+05 -8.4836961093702674e+07 
+1.1000000000000001e+00 -5.3639564126260386e-01 +7.3540055036681551e+00 -9.8940169293666613e-01 +1.8604104945603513e+01 +1.7372644423744539e+04 -2.5710233083634041e+05 -8.5075488953836501e+07 
+1.2000000000000000e+00 -5.3639566581970144e-01 +7.3539949454003706e+00 -9.9510783304985295e-01 +1.8648835590798022e+01 +1.7440820337283247e+04 -2.5662893696566537e+05 -8.5281252936757684e+07 
+1.3000000000000000e+00 -5.3639570484705101e-01 +7.3539822270739421e+00 -1.0001378539281083e+00 +1.8747349246439398e+01 +1.7499185974323496e+04 -2.5645536066260704e+05 -8.5449908297961116e+07 
+1.3999999999999999e+00 -5.3639575961820130e-01 +7.3539673654973710e+00 -1.0044178426584125e+00 +1.8900361512482842e+01 +1.7546601724586519e+04 -2.5658839910936897e+05 -8.5577110079207361e+07 
+1.5000000000000000e+00 -5.3639583140669023e-01 +7.3539503774701274e+00 -1.0078738878424485e+00 +1.9108588245436550e+01 +1.7581928005888200e+04 -2.5703485085984191e+05 -8.5658513448858380e+07 
+1.6000000000000001e+00 -5.3639592148597848e-01 +7.3539312797821683e+00 -1.0104320811781067e+00 +1.9372745569255660e+01 +1.7604025296178050e+04 -2.5780151588400465e+05 -8.5689773861012995e+07 
+1.7000000000000000e+00 -5.3639603112951495e-01 +7.3539100892168534e+00 -1.0120185157073898e+00 +1.9693549794297358e+01 +1.7611754095862761e+04 -2.5889519509776100e+05 -8.5666546862482801e+07 
+1.8000000000000000e+00 -5.3639616161081138e-01 +7.3538868225425498e+00 -1.0125592870776083e+00 +2.0071717655611934e+01 +1.7603974957785922e+04 -2.6032269171860590e+05 -8.5584488252067715e+07 
+1.8999999999999999e+00 -5.3639631420328959e-01 +7.3538614965192926e+00 -1.0119804889518647e+00 +2.0507966130319339e+01 +1.7579548395937545e+04 -2.6209081022769070e+05 -8.5439253634935036e+07 
+2.0000000000000000e+00 -5.3639649018042090e-01 +7.3538341278966346e+00 -1.0102082222125799e+00 +2.1003012483834066e+01 +1.7537335062548285e+04 -2.6420635655767686e+05 -8.5226499268566981e+07 
+2.1000000000000001e+00 -5.3639669034189452e-01 +7.3538047998242924e+00 -1.0072018381484393e+00 +2.1555965513449781e+01 +1.7476686143074508e+04 -2.6666735286019393e+05 -8.4943682611509353e+07 
+2.2000000000000002e+00 -5.3639691368592146e-01 +7.3537738487094710e+00 -1.0030476742296428e+00 +2.2159854885917444e+01 +1.7398830709701026e+04 -2.6943909423273476e+05 -8.4595176155604154e+07 
+2.2999999999999998e+00 -5.3639715878251204e-01 +7.3537416713502584e+00 -9.9786237801787470e-01 +2.2806273848955964e+01 +1.7305447097992281e+04 -2.7247925558599399e+05 -8.4187010959424466e+07 
+2.3999999999999999e+00 -5.3639742420177283e-01 +7.3537086645400169e+00 -9.9176259609254558e-01 +2.3486815793926418e+01 +1.7198213632863182e+04 -2.7574551278244617e+05 -8.3725218049203724e+07 
+2.5000000000000000e+00 -5.3639770851375024e-01 +7.3536752250828430e+00 -9.8486497333481116e-01 +2.4193073816853982e+01 +1.7078808612898705e+04 -2.7919554013364343e+05 -8.3215828338176042e+07 
+2.6000000000000001e+00 -5.3639801028856549e-01 +7.3536417497871964e+00 -9.7728615017831533e-01 +2.4916640887595452e+01 +1.6948910261388108e+04 -2.8278701135489374e+05 -8.2664872401749969e+07 
+2.7000000000000002e+00 -5.3639832809632959e-01 +7.3536086354737416e+00 -9.6914276911716990e-01 +2.5649109654065509e+01 +1.6810196847950239e+04 -2.8647759854285838e+05 -8.2078381051704258e+07 
+2.7999999999999998e+00 -5.3639866050721607e-01 +7.3535762789660470e+00 -9.6055146669851144e-01 +2.6382072685969554e+01 +1.6664346542240961e+04 -2.9022497353034501e+05 -8.1462384656731904e+07 
+2.8999999999999999e+00 -5.3639900609141200e-01 +7.3535450771075377e+00 -9.5162887846939570e-01 +2.7107121996522558e+01 +1.6513037499158017e+04 -2.9398680516890169e+05 -8.0822913521298110e+07 
+3.0000000000000000e+00 -5.3639936341915606e-01 +7.3535154267440834e+00 -9.4249163584909712e-01 +2.7815849556132729e+01 +1.6357947811001282e+04 -2.9772076235484367e+05 -8.0165997691503361e+07 
+3.1000000000000001e+00 -5.3639973106071537e-01 +7.3534877247409032e+00 -9.3325636780023802e-01 +2.8499846786534217e+01 +1.6200755533203312e+04 -3.0138451106867555e+05 -7.9497667061709374e+07 
+3.2000000000000002e+00 -5.3640010758640555e-01 +7.3534623679764675e+00 -9.2403969917838968e-01 +2.9150704750529258e+01 +1.6043138655367222e+04 -3.0493571553303563e+05 -7.8823951240993530e+07 
+3.2999999999999998e+00 -5.3640049156658920e-01 +7.3534397533440279e+00 -9.1495825060097813e-01 +2.9760014114259270e+01 +1.5886775099463481e+04 -3.0833203802237782e+05 -7.8150879548741445e+07 
+3.3999999999999999e+00 -5.3640088157167221e-01 +7.3534202777507245e+00 -9.0612863924763432e-01 +3.0319365164398153e+01 +1.5733342735372426e+04 -3.1153113897208904e+05 -7.7484481087741435e+07 
+3.5000000000000000e+00 -5.3640127617212108e-01 +7.3534043381274401e+00 -8.9766747700682004e-01 +3.0820347526096757e+01 +1.5584519349727047e+04 -3.1449067536091484e+05 -7.6830784608391583e+07 
+3.6000000000000001e+00 -5.3640167393845595e-01 +7.3533923314193936e+00 -8.8969137394885334e-01 +3.1254550441654651e+01 +1.5441982705560711e+04 -3.1716830236255459e+05 -7.6195818774120688e+07 
+3.7000000000000002e+00 -5.3640207344122870e-01 +7.3533846545933592e+00 -8.8231692880531332e-01 +3.1613562561990705e+01 +1.5307410369408304e+04 -3.1952167216903740e+05 -7.5585611360881522e+07 
+3.7999999999999998e+00 -5.3640247325107615e-01 +7.3533817046392587e+00 -8.7566074191166354e-01 +3.1888971897725597e+01 +1.5182479954313951e+04 -3.2150843370336457e+05 -7.5006190405750558e+07 
+3.8999999999999999e+00 -5.3640287193873715e-01 +7.3533838785691987e+00 -8.6983940284435657e-01 +3.2072365852978201e+01 +1.5068868883935122e+04 -3.2308623286064685e+05 -7.4463583081370175e+07 
+4.0000000000000000e+00 -5.3640326807493055e-01 +7.3533915734102280e+00 -8.6496949777934728e-01 +3.2155331456655020e+01 +1.4968254548226414e+04 -3.2421271399819152e+05 -7.3963816488428086e+07 
+4.0999999999999996e+00 -5.3640366047986854e-01 +7.3534050117765926e+00 -8.6114025657663773e-01 +3.2132983710248169e+01 +1.4881969464751222e+04 -3.2486263089551369e+05 -7.3511875248162761e+07 
+4.2000000000000002e+00 -5.3640404886563942e-01 +7.3534237814284724e+00 -8.5833921198272267e-01 +3.2013005096082701e+01 +1.4810047685378200e+04 -3.2507059666165046e+05 -7.3108744376482323e+07 
+4.2999999999999998e+00 -5.3640443314391639e-01 +7.3534473256373500e+00 -8.5653025513884773e-01 +3.1805875152420818e+01 +1.4752217972987492e+04 -3.2488429227227170e+05 -7.2754453494895786e+07 
+4.4000000000000004e+00 -5.3640481322620592e-01 +7.3534750876681434e+00 -8.5567728222270678e-01 +3.1522073552025173e+01 +1.4708209167718594e+04 -3.2435139919307275e+05 -7.2449032547662571e+07 
+4.5000000000000000e+00 -5.3640518902408418e-01 +7.3535065107865432e+00 -8.5574419152465686e-01 +3.1172079896663043e+01 +1.4677750129707998e+04 -3.2351959820461110e+05 -7.2192511523658544e+07 
+4.5999999999999996e+00 -5.3640556044896104e-01 +7.3535410382488635e+00 -8.5669488714706543e-01 +3.0766373999773048e+01 +1.4660569816231162e+04 -3.2243657099392783e+05 -7.1984920843617514e+07 
+4.7000000000000002e+00 -5.3640592741228643e-01 +7.3535781133069325e+00 -8.5849327830618749e-01 +3.0315435736708753e+01 +1.4656397257193985e+04 -3.2114999923875614e+05 -7.1826291213201225e+07 
+4.7999999999999998e+00 -5.3640628982537897e-01 +7.3536171792095431e+00 -8.6110327456327285e-01 +2.9829745003942371e+01 +1.4664961467778980e+04 -3.1970756437263166e+05 -7.1716653216084614e+07 
+4.9000000000000004e+00 -5.3640664759955714e-01 +7.3536576791940496e+00 -8.6448879599787187e-01 +2.9319781964083258e+01 +1.4685991642122659e+04 -3.1815694899039331e+05 -7.1656038238764510e+07 
+5.0000000000000000e+00 -5.3640700064599423e-01 +7.3536990564962492e+00 -8.6861376432169002e-01 +2.8796026746740775e+01 +1.4719216978578403e+04 -3.1654583505701798e+05 -7.1644477620567963e+07 
+5.0999999999999996e+00 -5.3640734887590213e-01 +7.3537407543402393e+00 -8.7344210665166144e-01 +2.8268959744962846e+01 +1.4764366756122628e+04 -3.1492190563208709e+05 -7.1682003034043640e+07 
+5.2000000000000002e+00 -5.3640769220030904e-01 +7.3537822159434079e+00 -8.7893775901253446e-01 +2.7749061458671758e+01 +1.4821170392005346e+04 -3.1333284389996441e+05 -7.1768646733104050e+07 
+5.2999999999999998e+00 -5.3640803053021691e-01 +7.3538228845129838e+00 -8.8506466075004231e-01 +2.7246812609648735e+01 +1.4889357339660388e+04 -3.1182633387613873e+05 -7.1904441078926653e+07 
+5.4000000000000004e+00 -5.3640836377654566e-01 +7.3538622032487808e+00 -8.9178675777491290e-01 +2.6772694031512337e+01 +1.4968657150155164e+04 -3.1045005965843535e+05 -7.2089418833869711e+07 
+5.5000000000000000e+00 -5.3640869185007645e-01 +7.3538996153380216e+00 -8.9906800565224898e-01 +2.6337186841175274e+01 +1.5058799524068485e+04 -3.0925170647663099e+05 -7.2323613388438627e+07 
+5.5999999999999996e+00 -5.3640901466160607e-01 +7.3539345639578357e+00 -9.0687236370420754e-01 +2.5950772346396732e+01 +1.5159514200725975e+04 -3.0827896007680992e+05 -7.2607058239250854e+07 
+5.7000000000000002e+00 -5.3640933212174380e-01 +7.3539664922765926e+00 -9.1516380063941394e-01 +2.5623932010846211e+01 +1.5270531065465064e+04 -3.0757950651992246e+05 -7.2939787500125632e+07 
+5.7999999999999998e+00 -5.3640964414103443e-01 +7.3539948434479818e+00 -9.2390629169864480e-01 +2.5367147620967469e+01 +1.5391580093231620e+04 -3.0720103312354162e+05 -7.3321835629513621e+07 
+5.9000000000000004e+00 -5.3640995062993180e-01 +7.3540190606136360e+00 -9.3306381913155978e-01 +2.5190901204152183e+01 +1.5522391355807393e+04 -3.0719122794670134e+05 -7.3753237458425254e+07 
+5.9999999999999902e+00 -5.3641025149875510e-01 +7.3540385869244673e+00 -9.4260037479434078e-01 +2.5105674392547485e+01 +1.5662695044208011e+04 -3.0759777652460017e+05 -7.4234028261537582e+07 
+6.0999999999999899e+00 -5.3641054680748923e-01 +7.3540530041891321e+00 -9.5247278040639505e-01 +2.5119080581163690e+01 +1.5811994988589488e+04 -3.0845464734006120e+05 -7.4762985518127680e+07 
+6.1999999999999904e+00 -5.3641083714928883e-01 +7.3540623687370905e+00 -9.6261579122728347e-01 +2.5229244321940147e+01 +1.5969067349590543e+04 -3.0975085489430575e+05 -7.5334790474434793e+07 
+6.2999999999999901e+00 -5.3641112323590923e-01 +7.3540668384587882e+00 -9.7295997948760427e-01 +2.5432332640881146e+01 +1.6132542189150863e+04 -3.1146623905046377e+05 -7.5943289405030146e+07 
+6.3999999999999897e+00 -5.3641140577910551e-01 +7.3540665712257045e+00 -9.8343591671528874e-01 +2.5724513212131772e+01 +1.6301049554319079e+04 -3.1358064354552398e+05 -7.6582328519329920e+07 
+6.4999999999999902e+00 -5.3641168549064644e-01 +7.3540617249019604e+00 -9.9397417312087555e-01 +2.6101954009697884e+01 +1.6473219471264354e+04 -3.1607391392898286e+05 -7.7245753947051108e+07 
+6.5999999999999899e+00 -5.3641196308231265e-01 +7.3540524573366781e+00 -1.0045053165033233e+00 +2.6560823542473006e+01 +1.6647681917295900e+04 -3.1892589896702877e+05 -7.7927411586761490e+07 
+6.6999999999999904e+00 -5.3641223926590953e-01 +7.3540389263624304e+00 -1.0149599122754431e+00 +2.7097290900409423e+01 +1.6823066832907851e+04 -3.2211645090210740e+05 -7.8621147195852190e+07 
+6.7999999999999901e+00 -5.3641251475325846e-01 +7.3540212898050417e+00 -1.0252685260554020e+00 +2.7707525477616080e+01 +1.6998004158194457e+04 -3.2562542386079777e+05 -7.9320806528308377e+07 
+6.8999999999999897e+00 -5.3641279025613930e-01 +7.3539997054643207e+00 -1.0353617197572804e+00 +2.8387697534481298e+01 +1.7171123771618608e+04 -3.2943267712562490e+05 -8.0020235077085227e+07 
+6.9999999999999902e+00 -5.3641306648642006e-01 +7.3539743311377004e+00 -1.0451700534816830e+00 +2.9133977513969956e+01 +1.7341055517939563e+04 -3.3351807116772520e+05 -8.0713278190072998e+07 
+7.0999999999999899e+00 -5.3641334415596065e-01 +7.3539453245989206e+00 -1.0546240849770274e+00 +2.9942536664849658e+01 +1.7506429199382310e+04 -3.3786147126832214e+05 -8.1393781028374881e+07 
+7.1999999999999904e+00 -5.3641362397663850e-01 +7.3539128436068211e+00 -1.0636543701772363e+00 +3.0809546800932260e+01 +1.7665874590680505e+04 -3.4244274615814927e+05 -8.2055588653150275e+07 
+7.2999999999999901e+00 -5.3641390666039013e-01 +7.3538770459045244e+00 -1.0721914607383907e+00 +3.1731180315364156e+01 +1.7818021386421933e+04 -3.4724176807398879e+05 -8.2692545758069694e+07 
+7.3999999999999897e+00 -5.3641419291908299e-01 +7.3538380892185717e+00 -1.0801659071331700e+00 +3.2703610219255133e+01 +1.7961499265586535e+04 -3.5223841300848004e+05 -8.3298496993936166e+07 
+7.4999999999999902e+00 -5.3641448346471876e-01 +7.3537961312614524e+00 -1.0875082565964178e+00 +3.3723010065685443e+01 +1.8094937850025621e+04 -3.5741256026426220e+05 -8.3867286763250202e+07 
+7.5999999999999899e+00 -5.3641477900920209e-01 +7.3537513297172801e+00 -1.0941490547110166e+00 +3.4785554382082388e+01 +1.8216966732778201e+04 -3.6274409500030143e+05 -8.4392759351010591e+07 
+7.6999999999999904e+00 -5.3641508026455842e-01 +7.3537038422629282e+00 -1.1000188428848487e+00 +3.5887418044818169e+01 +1.8326215437919749e+04 -3.6821290456277912e+05 -8.4868758755398303e+07 
+7.7999999999999901e+00 -5.3641538794283417e-01 +7.3536538265531846e+00 -1.1050481566330608e+00 +3.7024776732716951e+01 +1.8421313381592023e+04 -3.7379888118508976e+05 -8.5289128483617753e+07 
+7.8999999999999897e+00 -5.3641570275608175e-01 +7.3536014402203032e+00 -1.1091675338299096e+00 +3.8193806926780830e+01 +1.8500890030239920e+04 -3.7948192193214997e+05 -8.5647712312108457e+07 
+7.9999999999999902e+00 -5.3641602541630617e-01 +7.3535468408755644e+00 -1.1123075120427115e+00 +3.9390685854365692e+01 +1.8563574849518940e+04 -3.8524192731916055e+05 -8.5938353946277827e+07 
+8.0999999999999908e+00 -5.3641635644918373e-01 +7.3534902495726344e+00 -1.1144282534799428e+00 +4.0610347040931011e+01 +1.8608545614268322e+04 -3.9105294508526858e+05 -8.6157267965249330e+07 
+8.1999999999999904e+00 -5.3641669577157591e-01 +7.3534321169622920e+00 -1.1155898078977680e+00 +4.1843229654412539e+01 +1.8636830413687614e+04 -3.9686882877348794e+05 -8.6308672614037365e+07 
+8.2999999999999901e+00 -5.3641704317595895e-01 +7.3533729454028487e+00 -1.1158733385552784e+00 +4.3078762766189286e+01 +1.8649848900534987e+04 -4.0263908296606090e+05 -8.6398478957421258e+07 
+8.3999999999999897e+00 -5.3641739845479219e-01 +7.3533132372718146e+00 -1.1153600053909887e+00 +4.4306374829981181e+01 +1.8649020706619685e+04 -4.0831320871633739e+05 -8.6432598078627318e+07 
+8.4999999999999893e+00 -5.3641776140081787e-01 +7.3532534949607378e+00 -1.1141309499428984e+00 +4.5515493820627398e+01 +1.8635765151222131e+04 -4.1384070432060369e+05 -8.6416939681104988e+07 
+8.5999999999999908e+00 -5.3641813180676645e-01 +7.3531942208813872e+00 -1.1122673061421897e+00 +4.6695547048414461e+01 +1.8611501451951397e+04 -4.1917106424893346e+05 -8.6357413106574148e+07 
+8.6999999999999904e+00 -5.3641850946558811e-01 +7.3531359174687685e+00 -1.1098501991017735e+00 +4.7835961078128911e+01 +1.8577648705579835e+04 -4.2425377869256720e+05 -8.6259927252271727e+07 
+8.7999999999999794e+00 -5.3641889417029276e-01 +7.3530790871722438e+00 -1.1069607398851466e+00 +4.8926161974259458e+01 +1.8535625780506478e+04 -4.2903833495834505e+05 -8.6130390040456250e+07 
+8.8999999999999808e+00 -5.3641928571403708e-01 +7.3530242324644988e+00 -1.1036800268552522e+00 +4.9955575047892538e+01 +1.8486851354491468e+04 -4.3347421603743680e+05 -8.5974708628016576e+07 
+8.9999999999999805e+00 -5.3641968389015371e-01 +7.3529718558435073e+00 -1.1000891507217923e+00 +5.0913624794015426e+01 +1.8432744004469234e+04 -4.3751090023435449e+05 -8.5798789820014194e+07 
+9.0999999999999801e+00 -5.3642008849206912e-01 +7.3529224598238034e+00 -1.0962691855818845e+00 +5.1789735133809003e+01 +1.8374722040248940e+04 -4.4109786254160880e+05 -8.5608539286214277e+07 
+9.1999999999999797e+00 -5.3642049931333835e-01 +7.3528765469448603e+00 -1.0923011948700807e+00 +5.2573329180313564e+01 +1.8314203620392076e+04 -4.4418457332553796e+05 -8.5409862122432053e+07 
+9.2999999999999794e+00 -5.3642091614773957e-01 +7.3528346197728318e+00 -1.0882662291885992e+00 +5.3253829178441343e+01 +1.8252606709209958e+04 -4.4672049795640365e+05 -8.5208662639472246e+07 
+9.3999999999999808e+00 -5.3642133878912734e-01 +7.3527971808929031e+00 -1.0842453246841268e+00 +5.3820656721907497e+01 +1.8191349046272662e+04 -4.4865509806037234e+05 -8.5010844220034227e+07 
+9.4999999999999805e+00 -5.3642176703149158e-01 +7.3527647329194030e+00 -1.0803195066527012e+00 +5.4263232470301041e+01 +1.8131848222114255e+04 -4.4993782991835638e+05 -8.4822309698606014e+07 
+9.5999999999999801e+00 -5.3642220066907353e-01 +7.3527377784915107e+00 -1.0765697845106728e+00 +5.4570976255395379e+01 +1.8075521578613476e+04 -4.5051814504131797e+05 -8.4648960875013277e+07 
+9.6999999999999797e+00 -5.3642263949616875e-01 +7.3527168202714046e+00 -1.0730771531125283e+00 +5.4733307137296634e+01 +1.8023786235937747e+04 -4.5034549051316455e+05 -8.4496698650192752e+07 
+9.7999999999999794e+00 -5.3642308330733401e-01 +7.3527023609533098e+00 -1.0699225942453181e+00 +5.4739643145120944e+01 +1.7978059124529122e+04 -4.4936930749896256e+05 -8.4371423185671210e+07 
+9.8999999999999808e+00 -5.3642353189721792e-01 +7.3526949032557596e+00 -1.0671870743237664e+00 +5.4579401488450621e+01 +1.7939756941404838e+04 -4.4753903245468606e+05 -8.4279033697194517e+07 
+9.9999999999999805e+00 -5.3642398506081002e-01 +7.3526949498391163e+00 -1.0649515376866121e+00 +5.4242001218442830e+01 +1.7910296158885980e+04 -4.4480411262922047e+05 -8.4225428846765116e+07 
+1.0100000000000000e+01 -5.3642444274467527e-01 +7.3527027723303675e+00 -1.0632670609810861e+00 +5.3722432775599039e+01 +1.7890601833716726e+04 -4.4114272246761079e+05 -8.4214472338713497e+07 
