# field on trajectory
# s[mm] rx[mm] ry[mm] rz[mm] bx[T] by[T] bz[T]
0.0000000000000000e+00 +8.1530000000000094e+00 +0.0000000000000000e+00 +0.0000000000000000e+00 -3.1054863137962102e-02 -5.9270910918199160e-01 +5.8981308909999411e-03
1.0000000000000001e-01 +8.1529997163925092e+00 +0.0000000000000000e+00 +9.9999999999463796e-02 -3.1054938987308652e-02 -5.9270937489007347e-01 +5.8981782586066912e-03
2.0000000000000001e-01 +8.1529988655711296e+00 +0.0000000000000000e+00 +1.9999999999571000e-01 -3.1055021820416414e-02 -5.9270961965364444e-01 +5.8982289161740873e-03
2.9999999999999999e-01 +8.1529974475415692e+00 +0.0000000000000000e+00 +2.9999999998552201e-01 -3.1055111379903733e-02 -5.9270984572014163e-01 +5.8982826989117795e-03
4.0000000000000002e-01 +8.1529954622965306e+00 +0.0000000000000000e+00 +3.9999999996568197e-01 -3.1055207408394753e-02 -5.9271005533711241e-01 +5.8983394420297651e-03
5.0000000000000000e-01 +8.1529929098396696e+00 +0.0000000000000000e+00 +4.9999999993297300e-01 -3.1055309648508313e-02 -5.9271025075201711e-01 +5.8983989807363567e-03
5.9999999999999998e-01 +8.1529897901673394e+00 +0.0000000000000000e+00 +5.9999999988417696e-01 -3.1055417842865463e-02 -5.9271043421237457e-01 +5.8984611502396643e-03
6.9999999999999996e-01 +8.1529861032831796e+00 +0.0000000000000000e+00 +6.9999999981607697e-01 -3.1055531734082528e-02 -5.9271060796564490e-01 +5.8985257857463646e-03
8.0000000000000004e-01 +8.1529818491871993e+00 +0.0000000000000000e+00 +7.9999999972545699e-01 -3.1055651064775310e-02 -5.9271077425931140e-01 +5.8985927224625605e-03
9.0000000000000002e-01 +8.1529770278793894e+00 +0.0000000000000000e+00 +8.9999999960909804e-01 -3.1055775577556996e-02 -5.9271093534085295e-01 +5.8986617955934448e-03
1.0000000000000000e+00 +8.1529716393597500e+00 +0.0000000000000000e+00 +9.9999999946378304e-01 -3.1055905015037640e-02 -5.9271109345774031e-01 +5.8987328403432909e-03
1.1000000000000001e+00 +8.1529656836210105e+00 +0.0000000000000000e+00 +1.0999999992862901e+00 -3.1056039119826750e-02 -5.9271125085749399e-01 +5.8988056919159933e-03
1.2000000000000000e+00 +8.1529591606740706e+00 +0.0000000000000000e+00 +1.1999999990734200e+00 -3.1056177634521617e-02 -5.9271140978747372e-01 +5.8988801855129544e-03
1.3000000000000000e+00 +8.1529520705153100e+00 +0.0000000000000000e+00 +1.2999999988219300e+00 -3.1056320301721139e-02 -5.9271157249514539e-01 +5.8989561563357286e-03
1.3999999999999999e+00 +8.1529444131410909e+00 +0.0000000000000000e+00 +1.3999999985286200e+00 -3.1056466864018910e-02 -5.9271174122795767e-01 +5.8990334395848214e-03
1.5000000000000000e+00 +8.1529361885550298e+00 +0.0000000000000000e+00 +1.4999999981902701e+00 -3.1056617063999443e-02 -5.9271191823328351e-01 +5.8991118704590385e-03
1.6000000000000001e+00 +8.1529273967571498e+00 +0.0000000000000000e+00 +1.5999999978036501e+00 -3.1056770644242424e-02 -5.9271210575850453e-01 +5.8991912841563441e-03
1.7000000000000000e+00 +8.1529180377474404e+00 +0.0000000000000000e+00 +1.6999999973655600e+00 -3.1056927347320677e-02 -5.9271230605098124e-01 +5.8992715158735515e-03
1.8000000000000000e+00 +8.1529081115222706e+00 +0.0000000000000000e+00 +1.7999999968727800e+00 -3.1057086915801092e-02 -5.9271252135808039e-01 +5.8993524008065764e-03
1.8999999999999999e+00 +8.1528976180852606e+00 +0.0000000000000000e+00 +1.8999999963220899e+00 -3.1057249092239322e-02 -5.9271275392708345e-01 +5.8994337741495031e-03
2.0000000000000000e+00 +8.1528865574327902e+00 +0.0000000000000000e+00 +1.9999999957102601e+00 -3.1057413619185733e-02 -5.9271300600530352e-01 +5.8995154710957684e-03
2.1000000000000001e+00 +8.1528749295721408e+00 +0.0000000000000000e+00 +2.0999999950340902e+00 -3.1057580136566145e-02 -5.9271327934762519e-01 +5.8995973667335501e-03
2.2000000000000002e+00 +8.1528627344960096e+00 +0.0000000000000000e+00 +2.1999999942903599e+00 -3.1057747873862947e-02 -5.9271357373979294e-01 +5.8996794957392965e-03
2.2999999999999998e+00 +8.1528499722080596e+00 +0.0000000000000000e+00 +2.2999999934758399e+00 -3.1057915957938480e-02 -5.9271388847515116e-01 +5.8997619326857714e-03
2.3999999999999999e+00 +8.1528366427046404e+00 +0.0000000000000000e+00 +2.3999999925873299e+00 -3.1058083515654256e-02 -5.9271422284710662e-01 +5.8998447521468930e-03
2.5000000000000000e+00 +8.1528227459894005e+00 +0.0000000000000000e+00 +2.4999999916215998e+00 -3.1058249673864644e-02 -5.9271457614901168e-01 +5.8999280286966818e-03
2.6000000000000001e+00 +8.1528082820659602e+00 +0.0000000000000000e+00 +2.5999999905754398e+00 -3.1058413559420264e-02 -5.9271494767422706e-01 +5.9000118369100484e-03
2.7000000000000002e+00 +8.1527932509234198e+00 +0.0000000000000000e+00 +2.6999999894456299e+00 -3.1058574299174451e-02 -5.9271533671623922e-01 +5.9000962513641340e-03
2.7999999999999998e+00 +8.1527776525726896e+00 +0.0000000000000000e+00 +2.7999999882289601e+00 -3.1058731019967398e-02 -5.9271574256836879e-01 +5.9001813466354747e-03
2.8999999999999999e+00 +8.1527614870065008e+00 +0.0000000000000000e+00 +2.8999999869222002e+00 -3.1058882848643894e-02 -5.9271616452409659e-01 +5.9002671973034711e-03
3.0000000000000000e+00 +8.1527447542284808e+00 +0.0000000000000000e+00 +2.9999999855221300e+00 -3.1059028912040685e-02 -5.9271660187682962e-01 +5.9003538779481435e-03
3.1000000000000001e+00 +8.1527274542386294e+00 +0.0000000000000000e+00 +3.0999999840255499e+00 -3.1059168336992925e-02 -5.9271705392002128e-01 +5.9004414631514887e-03
3.2000000000000002e+00 +8.1527095870333106e+00 +0.0000000000000000e+00 +3.1999999824292300e+00 -3.1059300250334404e-02 -5.9271751994717248e-01 +5.9005300274976649e-03
3.2999999999999998e+00 +8.1526911526198091e+00 +0.0000000000000000e+00 +3.2999999807299600e+00 -3.1059423778891163e-02 -5.9271799925171531e-01 +5.9006196455719129e-03
3.3999999999999999e+00 +8.1526721509872004e+00 +0.0000000000000000e+00 +3.3999999789245101e+00 -3.1059538049494562e-02 -5.9271849112725350e-01 +5.9007103919631598e-03
3.5000000000000000e+00 +8.1526525821464002e+00 +0.0000000000000000e+00 +3.4999999770096801e+00 -3.1059642188963659e-02 -5.9271899486723589e-01 +5.9008023412608470e-03
3.6000000000000001e+00 +8.1526324460901396e+00 +0.0000000000000000e+00 +3.5999999749822500e+00 -3.1059735324123077e-02 -5.9271950976528587e-01 +5.9008955680584160e-03
3.7000000000000002e+00 +8.1526117428220495e+00 +0.0000000000000000e+00 +3.6999999728389801e+00 -3.1059816581790248e-02 -5.9272003511496629e-01 +5.9009901469510495e-03
3.7999999999999998e+00 +8.1525904723421299e+00 +0.0000000000000000e+00 +3.7999999705766800e+00 -3.1059885088782005e-02 -5.9272057020989932e-01 +5.9010861525370505e-03
3.8999999999999999e+00 +8.1525686346503807e+00 +0.0000000000000000e+00 +3.8999999681921298e+00 -3.1059939971913038e-02 -5.9272111434373864e-01 +5.9011836594176905e-03
4.0000000000000000e+00 +8.1525462297431694e+00 +0.0000000000000000e+00 +3.9999999656820902e+00 -3.1059980357997688e-02 -5.9272166681020111e-01 +5.9012827421976756e-03
4.0999999999999996e+00 +8.1525232576241304e+00 +0.0000000000000000e+00 +4.0999999630433699e+00 -3.1060005755866888e-02 -5.9272222695917476e-01 +5.9013834772909208e-03
4.2000000000000002e+00 +8.1524997182896204e+00 +0.0000000000000000e+00 +4.1999999602727298e+00 -3.1060017202441600e-02 -5.9272279436541209e-01 +5.9014859483405447e-03
4.2999999999999998e+00 +8.1524756117469206e+00 +0.0000000000000000e+00 +4.2999999573669703e+00 -3.1060016116660660e-02 -5.9272336865978648e-01 +5.9015902407962865e-03
4.4000000000000004e+00 +8.1524509379887604e+00 +0.0000000000000000e+00 +4.3999999543228601e+00 -3.1060003917469915e-02 -5.9272394947330131e-01 +5.9016964401098606e-03
4.5000000000000000e+00 +8.1524256970187707e+00 +0.0000000000000000e+00 +4.4999999511372000e+00 -3.1059982023811310e-02 -5.9272453643688450e-01 +5.9018046317328441e-03
4.5999999999999996e+00 +8.1523998888369498e+00 +0.0000000000000000e+00 +4.5999999478067499e+00 -3.1059951854629540e-02 -5.9272512918150722e-01 +5.9019149011178907e-03
4.7000000000000002e+00 +8.1523735134396702e+00 +0.0000000000000000e+00 +4.6999999443283098e+00 -3.1059914828872263e-02 -5.9272572733818263e-01 +5.9020273337186992e-03
4.7999999999999998e+00 +8.1523465708305594e+00 +0.0000000000000000e+00 +4.7999999406986600e+00 -3.1059872365485564e-02 -5.9272633053787982e-01 +5.9021420149891254e-03
4.9000000000000004e+00 +8.1523190610096208e+00 +0.0000000000000000e+00 +4.8999999369145701e+00 -3.1059825883418969e-02 -5.9272693841161073e-01 +5.9022590303840720e-03
5.0000000000000000e+00 +8.1522909839768491e+00 +0.0000000000000000e+00 +4.9999999329728402e+00 -3.1059776801624119e-02 -5.9272755059040250e-01 +5.9023784653591815e-03
5.0999999999999996e+00 +8.1522623397286207e+00 +0.0000000000000000e+00 +5.0999999288702398e+00 -3.1059726539056587e-02 -5.9272816670532502e-01 +5.9025004053711253e-03
5.2000000000000002e+00 +8.1522331282685592e+00 +0.0000000000000000e+00 +5.1999999246035600e+00 -3.1059676514671345e-02 -5.9272878638740634e-01 +5.9026249358767133e-03
5.2999999999999998e+00 +8.1522033495966806e+00 +0.0000000000000000e+00 +5.2999999201695802e+00 -3.1059628147427739e-02 -5.9272940926771756e-01 +5.9027521423337774e-03
5.4000000000000004e+00 +8.1521730037093203e+00 +0.0000000000000000e+00 +5.3999999155650800e+00 -3.1059582856289809e-02 -5.9273003497737553e-01 +5.9028821102011676e-03
5.5000000000000000e+00 +8.1521420906137791e+00 +0.0000000000000000e+00 +5.4999999107868396e+00 -3.1059542060220078e-02 -5.9273066314742462e-01 +5.9030149249375378e-03
5.5999999999999996e+00 +8.1521106102991308e+00 +0.0000000000000000e+00 +5.5999999058316599e+00 -3.1059507178192603e-02 -5.9273129340907316e-01 +5.9031506720037645e-03
5.7000000000000002e+00 +8.1520785627762997e+00 +0.0000000000000000e+00 +5.6999999006963096e+00 -3.1059479629175601e-02 -5.9273192539336894e-01 +5.9032894368596101e-03
5.7999999999999998e+00 +8.1520459480379905e+00 +0.0000000000000000e+00 +5.7999998953775700e+00 -3.1059460832149294e-02 -5.9273255873152353e-01 +5.9034313049670393e-03
5.9000000000000004e+00 +8.1520127660915005e+00 +0.0000000000000000e+00 +5.8999998898722197e+00 -3.1059452206091697e-02 -5.9273319305464789e-01 +5.9035763617875069e-03
5.9999999999999902e+00 +8.1519790169259103e+00 +0.0000000000000000e+00 +5.9999998841770603e+00 -3.1059455169993408e-02 -5.9273382799401875e-01 +5.9037246927846534e-03
6.0999999999999899e+00 +8.1519447005521197e+00 +0.0000000000000000e+00 +6.0999998782888598e+00 -3.1059470894459335e-02 -5.9273446328096957e-01 +5.9038763442318823e-03
6.1999999999999904e+00 +8.1519098169665103e+00 +0.0000000000000000e+00 +6.1999998722044003e+00 -3.1059499556585251e-02 -5.9273509904781319e-01 +5.9040312056473200e-03
6.2999999999999901e+00 +8.1518743661654298e+00 +0.0000000000000000e+00 +6.2999998659204701e+00 -3.1059541085104794e-02 -5.9273573552701742e-01 +5.9041891273599505e-03
6.3999999999999897e+00 +8.1518383481488907e+00 +0.0000000000000000e+00 +6.3999998594338496e+00 -3.1059595408772522e-02 -5.9273637295094617e-01 +5.9043499596986250e-03
6.4999999999999902e+00 +8.1518017629241495e+00 +0.0000000000000000e+00 +6.4999998527413201e+00 -3.1059662456363196e-02 -5.9273701155183056e-01 +5.9045135529917471e-03
6.5999999999999899e+00 +8.1517646104839496e+00 +0.0000000000000000e+00 +6.5999998458396698e+00 -3.1059742156682273e-02 -5.9273765156193781e-01 +5.9046797575690434e-03
6.6999999999999904e+00 +8.1517268908319203e+00 +0.0000000000000000e+00 +6.6999998387256703e+00 -3.1059834438555641e-02 -5.9273829321336491e-01 +5.9048484237594475e-03
6.7999999999999901e+00 +8.1516886039680703e+00 +0.0000000000000000e+00 +6.7999998313961196e+00 -3.1059939230836851e-02 -5.9273893673815214e-01 +5.9050194018922643e-03
6.8999999999999897e+00 +8.1516497498923908e+00 +0.0000000000000000e+00 +6.8999998238477902e+00 -3.1060056462406487e-02 -5.9273958236825075e-01 +5.9051925422968507e-03
6.9999999999999902e+00 +8.1516103286012402e+00 +0.0000000000000000e+00 +6.9999998160774597e+00 -3.1060186062174647e-02 -5.9274023033554901e-01 +5.9053676953029020e-03
7.0999999999999899e+00 +8.1515703400982602e+00 +0.0000000000000000e+00 +7.0999998080819298e+00 -3.1060327959076983e-02 -5.9274088087178023e-01 +5.9055447112395087e-03
7.1999999999999904e+00 +8.1515297843834595e+00 +0.0000000000000000e+00 +7.1999997998579603e+00 -3.1060482082080489e-02 -5.9274153420860864e-01 +5.9057234404360460e-03
7.2999999999999901e+00 +8.1514886614531896e+00 +0.0000000000000000e+00 +7.2999997914023496e+00 -3.1060648360184375e-02 -5.9274219057762578e-01 +5.9059037332221493e-03
7.3999999999999897e+00 +8.1514469713147300e+00 +0.0000000000000000e+00 +7.3999997827118804e+00 -3.1060826722414496e-02 -5.9274285021022932e-01 +5.9060854399264773e-03
7.4999999999999902e+00 +8.1514047139571595e+00 +0.0000000000000000e+00 +7.4999997737833199e+00 -3.1061017097837183e-02 -5.9274351333785591e-01 +5.9062684108791121e-03
7.5999999999999899e+00 +8.1513618893914099e+00 +0.0000000000000000e+00 +7.5999997646134698e+00 -3.1061219415542421e-02 -5.9274418019165309e-01 +5.9064524964082057e-03
7.6999999999999904e+00 +8.1513184976138309e+00 +0.0000000000000000e+00 +7.6999997551991104e+00 -3.1061433604660821e-02 -5.9274485100277252e-01 +5.9066375468429851e-03
7.7999999999999901e+00 +8.1512745386207808e+00 +0.0000000000000000e+00 +7.7999997455370096e+00 -3.1061659594358138e-02 -5.9274552600224639e-01 +5.9068234125125088e-03
7.8999999999999897e+00 +8.1512300124159101e+00 +0.0000000000000000e+00 +7.8999997356239602e+00 -3.1061897313832871e-02 -5.9274620542092715e-01 +5.9070099437450452e-03
7.9999999999999902e+00 +8.1511849189955701e+00 +0.0000000000000000e+00 +7.9999997254567399e+00 -3.1062146692323697e-02 -5.9274688948960130e-01 +5.9071969908692634e-03
8.0999999999999908e+00 +8.1511392583670403e+00 +0.0000000000000000e+00 +8.0999997150321406e+00 -3.1062407452765974e-02 -5.9274757838080616e-01 +5.9073844300805249e-03
8.1999999999999904e+00 +8.1510930305230396e+00 +0.0000000000000000e+00 +8.1999997043469399e+00 -3.1062678492767060e-02 -5.9274827203501745e-01 +5.9075722410461161e-03
8.2999999999999901e+00 +8.1510462354672200e+00 +0.0000000000000000e+00 +8.2999996933979094e+00 -3.1062958503569986e-02 -5.9274897033468998e-01 +5.9077604292968435e-03
8.3999999999999897e+00 +8.1509988731995708e+00 +0.0000000000000000e+00 +8.3999996821818605e+00 -3.1063246176393385e-02 -5.9274967316243754e-01 +5.9079490003595483e-03
8.4999999999999893e+00 +8.1509509437164507e+00 +0.0000000000000000e+00 +8.4999996706955496e+00 -3.1063540202430344e-02 -5.9275038040103434e-01 +5.9081379597569449e-03
8.5999999999999908e+00 +8.1509024470215099e+00 +0.0000000000000000e+00 +8.5999996589357703e+00 -3.1063839272842602e-02 -5.9275109193333342e-01 +5.9083273130065986e-03
8.6999999999999904e+00 +8.1508533831147396e+00 +0.0000000000000000e+00 +8.6999996468993004e+00 -3.1064142078764265e-02 -5.9275180764235902e-01 +5.9085170656216638e-03
8.7999999999999794e+00 +8.1508037519961398e+00 +0.0000000000000000e+00 +8.7999996345829192e+00 -3.1064447311299179e-02 -5.9275252741128148e-01 +5.9087072231104572e-03
8.8999999999999808e+00 +8.1507535536620708e+00 +0.0000000000000000e+00 +8.8999996219834205e+00 -3.1064753661521484e-02 -5.9275325112345145e-01 +5.9088977909766268e-03
8.9999999999999805e+00 +8.1507027881161793e+00 +0.0000000000000000e+00 +8.9999996090975891e+00 -3.1065059820469705e-02 -5.9275397866231549e-01 +5.9090887747180777e-03
9.0999999999999801e+00 +8.1506514553584601e+00 +0.0000000000000000e+00 +9.0999995959221902e+00 -3.1065364479150592e-02 -5.9275470991151114e-01 +5.9092801798277693e-03
9.1999999999999797e+00 +8.1505995553889097e+00 +0.0000000000000000e+00 +9.1999995824540193e+00 -3.1065666328536377e-02 -5.9275544475483843e-01 +5.9094720117932606e-03
9.2999999999999794e+00 +8.1505470882038900e+00 +0.0000000000000000e+00 +9.2999995686898593e+00 -3.1065964059565417e-02 -5.9275618307629785e-01 +5.9096642760968635e-03
9.3999999999999808e+00 +8.1504940538070496e+00 +0.0000000000000000e+00 +9.3999995546264898e+00 -3.1066256363136237e-02 -5.9275692476000341e-01 +5.9098569782146072e-03
9.4999999999999805e+00 +8.1504404521983798e+00 +0.0000000000000000e+00 +9.4999995402606903e+00 -3.1066541930111363e-02 -5.9275766969027754e-01 +5.9100501236170038e-03
9.5999999999999801e+00 +8.1503862833778804e+00 +0.0000000000000000e+00 +9.5999995255892507e+00 -3.1066819451314672e-02 -5.9275841775162541e-01 +5.9102437177686066e-03
9.6999999999999797e+00 +8.1503315473419207e+00 +0.0000000000000000e+00 +9.6999995106089507e+00 -3.1067087617531877e-02 -5.9275916882876878e-01 +5.9104377661281541e-03
9.7999999999999794e+00 +8.1502762440941297e+00 +0.0000000000000000e+00 +9.7999994953165697e+00 -3.1067345119504736e-02 -5.9275992280656353e-01 +5.9106322741475596e-03
9.8999999999999808e+00 +8.1502203736345091e+00 +0.0000000000000000e+00 +9.8999994797088906e+00 -3.1067590647934823e-02 -5.9276067957009060e-01 +5.9108272472726446e-03
9.9999999999999805e+00 +8.1501639359594300e+00 +0.0000000000000000e+00 +9.9999994637827001e+00 -3.1067822893482391e-02 -5.9276143900466194e-01 +5.9110226909430139e-03
1.0100000000000000e+01 +8.1501069310761505e+00 +0.0000000000000000e+00 +1.0099999447534801e+01 -3.1068040819593998e-02 -5.9276220088729081e-01 +5.9112186236665596e-03
1.0199999999999999e+01 +8.1500493589774106e+00 +0.0000000000000000e+00 +1.0199999430961901e+01 -3.1068244481051246e-02 -5.9276296456153788e-01 +5.9114151162558215e-03
1.0300000000000001e+01 +8.1499912196668394e+00 +0.0000000000000000e+00 +1.0299999414060901e+01 -3.1068434205473786e-02 -5.9276372926237952e-01 +5.9116122526084204e-03
1.0400000000000000e+01 +8.1499325131444493e+00 +0.0000000000000000e+00 +1.0399999396828500e+01 -3.1068610320486086e-02 -5.9276449422471333e-01 +5.9118101166337660e-03
1.0500000000000000e+01 +8.1498732394065900e+00 +0.0000000000000000e+00 +1.0499999379261400e+01 -3.1068773153717588e-02 -5.9276525868335717e-01 +5.9120087922533721e-03
1.0600000000000000e+01 +8.1498133984568994e+00 +0.0000000000000000e+00 +1.0599999361356600e+01 -3.1068923032798020e-02 -5.9276602187295602e-01 +5.9122083634002270e-03
1.0699999999999999e+01 +8.1497529902953794e+00 +0.0000000000000000e+00 +1.0699999343110701e+01 -3.1069060285362406e-02 -5.9276678302806884e-01 +5.9124089140200169e-03
1.0800000000000001e+01 +8.1496920149220404e+00 +0.0000000000000000e+00 +1.0799999324520600e+01 -3.1069185239049571e-02 -5.9276754138313448e-01 +5.9126105280711220e-03
1.0900000000000000e+01 +8.1496304723332305e+00 +0.0000000000000000e+00 +1.0899999305583000e+01 -3.1069298221503915e-02 -5.9276829617249860e-01 +5.9128132895252140e-03
1.1000000000000000e+01 +8.1495683625325892e+00 +0.0000000000000000e+00 +1.0999999286294800e+01 -3.1069399560370730e-02 -5.9276904663032248e-01 +5.9130172823666548e-03
1.1100000000000000e+01 +8.1495056855201309e+00 +0.0000000000000000e+00 +1.1099999266652601e+01 -3.1069489583301184e-02 -5.9276979199066759e-01 +5.9132225905936956e-03
1.1199999999999999e+01 +8.1494424412958306e+00 +0.0000000000000000e+00 +1.1199999246653300e+01 -3.1069568617950856e-02 -5.9277053148746317e-01 +5.9134292982184842e-03
1.1300000000000001e+01 +8.1493786298560700e+00 +0.0000000000000000e+00 +1.1299999226293700e+01 -3.1069636991981502e-02 -5.9277126435453298e-01 +5.9136374892676657e-03
1.1400000000000000e+01 +8.1493142512044905e+00 +0.0000000000000000e+00 +1.1399999205570500e+01 -3.1069695033056354e-02 -5.9277198982550250e-01 +5.9138472477817576e-03
1.1500000000000000e+01 +8.1492493053447106e+00 +0.0000000000000000e+00 +1.1499999184480499e+01 -3.1069743068843539e-02 -5.9277270713385610e-01 +5.9140586578160853e-03
1.1600000000000000e+01 +8.1491837922658306e+00 +0.0000000000000000e+00 +1.1599999163020600e+01 -3.1069781427022602e-02 -5.9277341551305152e-01 +5.9142718034422698e-03
1.1699999999999999e+01 +8.1491177119787608e+00 +0.0000000000000000e+00 +1.1699999141187400e+01 -3.1069810435268647e-02 -5.9277411419622072e-01 +5.9144867687455039e-03
1.1800000000000001e+01 +8.1490510644762306e+00 +0.0000000000000000e+00 +1.1799999118977800e+01 -3.1069830421270084e-02 -5.9277480241649250e-01 +5.9147036378281864e-03
