# multipoles
# s[mm] polynom_b[n=0][T/m^n] polynom_b[n=1][T/m^n] polynom_b[n=2][T/m^n] polynom_b[n=3][T/m^n] polynom_b[n=4][T/m^n] polynom_b[n=5][T/m^n] polynom_b[n=6][T/m^n] 
+0.0000000000000000e+00 -5.9244064777224126e-01 +8.1114252620254952e+00 -2.9313381068363192e-01 -9.1811691283582029e+00 +5.9476386124711598e+03 -7.5956080327292802e+04 -3.8335245270673662e+07 
+1.0000000000000001e-01 -5.9244074023779314e-01 +8.1114335541485900e+00 -2.8956496495024392e-01 -9.1673023006168624e+00 +5.9235949586947181e+03 -7.6323430128705586e+04 -3.8300913193247668e+07 
+2.0000000000000001e-01 -5.9244083882625531e-01 +8.1114373081083162e+00 -2.8622002924928386e-01 -9.0124932245966214e+00 +5.9020571573684856e+03 -7.7497202460769753e+04 -3.8270439153600685e+07 
+2.9999999999999999e-01 -5.9244094239108036e-01 +8.1114369844335066e+00 -2.8315002044744630e-01 -8.7298771306743586e+00 +5.8836846974441742e+03 -7.9404724639419204e+04 -3.8246619003883660e+07 
+4.0000000000000002e-01 -5.9244104978569090e-01 +8.1114330436561151e+00 -2.8040595528150708e-01 -8.3325893386280860e+00 +5.8691370668990885e+03 -8.1973323524331354e+04 -3.8232248582437739e+07 
+5.0000000000000000e-01 -5.9244115986355084e-01 +8.1114259463145686e+00 -2.7803885194287808e-01 -7.8337653317213061e+00 +5.8590737753086642e+03 -8.5130325143978465e+04 -3.8230123807204016e+07 
+5.9999999999999998e-01 -5.9244127147806835e-01 +8.1114161529467452e+00 -2.7609973190586334e-01 -7.2465405788379069e+00 +5.8541543919574806e+03 -8.8803055650124836e+04 -3.8243040866768859e+07 
+6.9999999999999996e-01 -5.9244138348262743e-01 +8.1114041240957473e+00 -2.7463961658178843e-01 -6.5840506587687484e+00 +5.8550384869726440e+03 -9.2918840716583305e+04 -3.8273795952524163e+07 
+8.0000000000000004e-01 -5.9244149473067287e-01 +8.1113903203086348e+00 -2.7370952685618927e-01 -5.8594312577277341e+00 +5.8623856163761802e+03 -9.7405005445704577e+04 -3.8325185173573822e+07 
+9.0000000000000002e-01 -5.9244160407559943e-01 +8.1113752021374221e+00 -2.7336048654922745e-01 -5.0858181702538978e+00 +5.8768553951979957e+03 -1.0218887443705874e+05 -3.8400004925712503e+07 
+1.0000000000000000e+00 -5.9244171037080051e-01 +8.1113592301422983e+00 -2.7364351652664737e-01 -4.2763473923174455e+00 +5.8991073840103290e+03 -1.0719777123665507e+05 -3.8501051347880214e+07 
+1.1000000000000001e+00 -5.9244181246971472e-01 +8.1113428648816708e+00 -2.7460963920147136e-01 -3.4441548347611777e+00 +5.9298011745905642e+03 -1.1235901999561848e+05 -3.8631120733367428e+07 
+1.2000000000000000e+00 -5.9244190922579998e-01 +8.1113265669250829e+00 -2.7630987098262966e-01 -2.6023766863210409e+00 +5.9695962465552066e+03 -1.1759994338664506e+05 -3.8793008848166570e+07 
+1.3000000000000000e+00 -5.9244199949245868e-01 +8.1113107968453981e+00 -2.7879523239194354e-01 -1.7641491871584110e+00 +6.0191521652229912e+03 -1.2284786390803731e+05 -3.8989511888566338e+07 
+1.3999999999999999e+00 -5.9244208212322835e-01 +8.1112960152264701e+00 -2.8211673826382355e-01 -9.4260884397333611e-01 +6.0791283913426969e+03 -1.2803010265228969e+05 -3.9223425566989675e+07 
+1.5000000000000000e+00 -5.9244215597150818e-01 +8.1112826826522095e+00 -2.8632540248860905e-01 -1.5089211854933390e-01 +6.1501843731045574e+03 -1.3307398109203202e+05 -3.9497545555612639e+07 
+1.6000000000000001e+00 -5.9244221989088475e-01 +8.1112712597205903e+00 -2.9147223457019056e-01 +5.9786418368227756e-01 +6.2329794836882220e+03 -1.3790681886846834e+05 -3.9814667199665882e+07 
+1.7000000000000000e+00 -5.9244227273492089e-01 +8.1112622070306184e+00 -2.9760824014607801e-01 +1.2905232961779955e+00 +6.3281730317076435e+03 -1.4245593601031270e+05 -4.0177585569068380e+07 
+1.8000000000000000e+00 -5.9244231335718300e-01 +8.1112559851943864e+00 -3.0478442472579786e-01 +1.9139481314609985e+00 +6.4364243307200550e+03 -1.4664865082728752e+05 -4.0589095786960796e+07 
+1.8999999999999999e+00 -5.9244234061129275e-01 +8.1112530548305575e+00 -3.1305178393613270e-01 +2.4550014859644271e+00 +6.5583925175971235e+03 -1.5041228111734524e+05 -4.1051992175961234e+07 
+2.0000000000000000e+00 -5.9244235335093487e-01 +8.1112538765635716e+00 -3.2246131311990950e-01 +2.9005460649629664e+00 +6.6947367334121445e+03 -1.5367414432063213e+05 -4.1569069118322000e+07 
+2.1000000000000001e+00 -5.9244235085399799e-01 +8.1112587726935654e+00 -3.3303877479077448e-01 +3.2410553764906833e+00 +6.8457850161479064e+03 -1.5638074656754840e+05 -4.2141816704928786e+07 
+2.2000000000000002e+00 -5.9244233408645375e-01 +8.1112675131727379e+00 -3.4470836266990740e-01 +3.4813922717210102e+00 +7.0105170567514233e+03 -1.5855510954590992e+05 -4.2766371195599534e+07 
+2.2999999999999998e+00 -5.9244230443415979e-01 +8.1112797300771291e+00 -3.5736871998005082e-01 +3.6300044995449499e+00 +7.1875695334233824e+03 -1.6023932983357346e+05 -4.3437496514146894e+07 
+2.3999999999999999e+00 -5.9244226328294380e-01 +8.1112950554786671e+00 -3.7091848964269836e-01 +3.6953399370799089e+00 +7.3755791159461223e+03 -1.6147550474955284e+05 -4.4149956539450534e+07 
+2.5000000000000000e+00 -5.9244221201860847e-01 +8.1113131214447787e+00 -3.8525631320879627e-01 +3.6858465713387356e+00 +7.5731824420457524e+03 -1.6230573215642458e+05 -4.4898514984304734e+07 
+2.6000000000000001e+00 -5.9244215202700090e-01 +8.1113335600454217e+00 -4.0028083351353105e-01 +3.6099723205161478e+00 +7.7790161703249842e+03 -1.6277210950280033e+05 -4.5677935654012755e+07 
+2.7000000000000002e+00 -5.9244208469390847e-01 +8.1113560033321974e+00 -4.1589069670838408e-01 +3.4761656069216764e+00 +7.9917170164830932e+03 -1.6291673703997984e+05 -4.6482982610471137e+07 
+2.7999999999999998e+00 -5.9244201140508856e-01 +8.1113800833654324e+00 -4.3198454820931859e-01 +3.2928745889077780e+00 +8.2099216770685834e+03 -1.6278171342572238e+05 -4.7308419813392885e+07 
+2.8999999999999999e+00 -5.9244193354631980e-01 +8.1114054321855438e+00 -4.4846103714966362e-01 +3.0685479663265474e+00 +8.4322669094129651e+03 -1.6240914031347240e+05 -4.8149011486429334e+07 
+3.0000000000000000e+00 -5.9244185250334169e-01 +8.1114316818315082e+00 -4.6521881297517237e-01 +2.8116344611124000e+00 +8.6573894692256727e+03 -1.6184111938634815e+05 -4.8999521826845445e+07 
+3.1000000000000001e+00 -5.9244176966182194e-01 +8.1114584643292797e+00 -4.8215652968832601e-01 +2.5305831198993061e+00 +8.8839261917156455e+03 -1.6111975402005660e+05 -4.9854715392459475e+07 
+3.2000000000000002e+00 -5.9244168640747130e-01 +8.1114854117013167e+00 -4.9917284183459043e-01 +2.2338430617221499e+00 +9.1105139101571876e+03 -1.6028714787717187e+05 -5.0709356700759567e+07 
+3.2999999999999998e+00 -5.9244160412593394e-01 +8.1115121559522159e+00 -5.1616640769334754e-01 +1.9298638746634511e+00 +9.3357895186092464e+03 -1.5938540716086447e+05 -5.1558210531266086e+07 
+3.3999999999999999e+00 -5.9244152420280083e-01 +8.1115383290730296e+00 -5.3303588733528728e-01 +1.6270954883194015e+00 +9.5583899352804365e+03 -1.5845663985199231e+05 -5.2396041753375560e+07 
+3.5000000000000000e+00 -5.9244144802364973e-01 +8.1115635630517104e+00 -5.4967994806448506e-01 +1.3339878621477332e+00 +9.7769521992401460e+03 -1.5754295388806154e+05 -5.3217615767671265e+07 
+3.6000000000000001e+00 -5.9244137697403654e-01 +8.1115874898543581e+00 -5.6599725558319613e-01 +1.0589915267846666e+00 +9.9901133106015586e+03 -1.5668646028175030e+05 -5.4017697766242534e+07 
+3.7000000000000002e+00 -5.9244131243940779e-01 +8.1116097414360997e+00 -5.8188648373090890e-01 +8.1055727085244733e-01 +1.0196510408063112e+04 -1.5592927131859434e+05 -5.4791053559128433e+07 
+3.7999999999999998e+00 -5.9244125580524454e-01 +8.1116299497312987e+00 -5.9724630754577179e-01 +5.9713640223265874e-01 +1.0394780636423860e+04 -1.5531350200181725e+05 -5.5532448940419480e+07 
+3.8999999999999999e+00 -5.9244120845690151e-01 +8.1116477466647030e+00 -6.1197540924343641e-01 +4.2718044250642445e-01 +1.0583561262421741e+04 -1.5488126832653265e+05 -5.6236650245610796e+07 
+4.0000000000000000e+00 -5.9244117177979216e-01 +8.1116627641412720e+00 -6.2597247319267302e-01 +3.0914139449061467e-01 +1.0761489577945009e+04 -1.5467468876258523e+05 -5.6898423887213573e+07 
+4.0999999999999996e+00 -5.9244114688794725e-01 +8.1116747131282434e+00 -6.3915326419153251e-01 +2.4928268402590140e-01 +1.0927428333540596e+04 -1.5472425672061814e+05 -5.7513389669987440e+07 
+4.2000000000000002e+00 -5.9244113382172991e-01 +8.1116836198423332e+00 -6.5150242135496383e-01 +2.4519644119198569e-01 +1.1081169163529097e+04 -1.5501450478117447e+05 -5.8080736226223774e+07 
+4.2999999999999998e+00 -5.9244113235585127e-01 +8.1116895891455574e+00 -6.6302194781866974e-01 +2.9232457212442003e-01 +1.1222742714632855e+04 -1.5551859366048544e+05 -5.8600583105387442e+07 
+4.4000000000000004e+00 -5.9244114226499234e-01 +8.1116927258876466e+00 -6.7371384573588722e-01 +3.8610931600925741e-01 +1.1352179614245855e+04 -1.5620968589803766e+05 -5.9073049776288353e+07 
+4.5000000000000000e+00 -5.9244116332383445e-01 +8.1116931349138177e+00 -6.8358011627380100e-01 +5.2199301817304233e-01 +1.1469510472199374e+04 -1.5706094453767070e+05 -5.9498255642134808e+07 
+4.5999999999999996e+00 -5.9244119530704831e-01 +8.1116909210742616e+00 -6.9262275625574143e-01 +6.9541788105416391e-01 +1.1574765808512102e+04 -1.5804553175229559e+05 -5.9876319673310056e+07 
+4.7000000000000002e+00 -5.9244123798937143e-01 +8.1116861892067451e+00 -7.0084376097773715e-01 +9.0182644103250675e-01 +1.1667976117767106e+04 -1.5913661153501150e+05 -6.0207360743924290e+07 
+4.7999999999999998e+00 -5.9244129114552035e-01 +8.1116790441492377e+00 -7.0824512280778906e-01 +1.1366612195887429e+00 +1.1749171835115951e+04 -1.6030734772016093e+05 -6.0491497451849408e+07 
+4.9000000000000004e+00 -5.9244135455019986e-01 +8.1116695907357386e+00 -7.1482883092950056e-01 +1.3953648213943357e+00 +1.1818383336333050e+04 -1.6153090448861328e+05 -6.0728848131565437e+07 
+5.0000000000000000e+00 -5.9244142797817845e-01 +8.1116579337954313e+00 -7.2059687238272896e-01 +1.6733799932958229e+00 +1.1875640955599336e+04 -1.6278044680520709e+05 -6.0919530934867434e+07 
+5.0999999999999996e+00 -5.9244151120419708e-01 +8.1116441781559754e+00 -7.2555122898224400e-01 +1.9661494931965275e+00 +1.1920974926008035e+04 -1.6402913955940070e+05 -6.1063663544589244e+07 
+5.2000000000000002e+00 -5.9244160400305379e-01 +8.1116284286411506e+00 -7.2969388118821821e-01 +2.2691161833146469e+00 +1.1954415455471815e+04 -1.6525014817365195e+05 -6.1161363544653058e+07 
+5.2999999999999998e+00 -5.9244170614953873e-01 +8.1116107900703600e+00 -7.3302680553187161e-01 +2.5777230390354231e+00 +1.1975992678033908e+04 -1.6641663864443140e+05 -6.1212748188200064e+07 
+5.4000000000000004e+00 -5.9244181741845892e-01 +8.1115913672585140e+00 -7.3555197442458931e-01 +2.8874131340500817e+00 +1.1985736646717662e+04 -1.6750177739376144e+05 -6.1217934355461165e+07 
+5.5000000000000000e+00 -5.9244193758463037e-01 +8.1115702650178783e+00 -7.3727135439783797e-01 +3.1936296116101350e+00 +1.1983677305104609e+04 -1.6847873118056168e+05 -6.1177038432641238e+07 
+5.5999999999999996e+00 -5.9244206642291131e-01 +8.1115475881609402e+00 -7.3818691247408230e-01 +3.4918155829424680e+00 +1.1969844607751496e+04 -1.6932066645391483e+05 -6.1090176882891811e+07 
+5.7000000000000002e+00 -5.9244220370816592e-01 +8.1115234414907427e+00 -7.3830060545444665e-01 +3.7774144286271367e+00 +1.1944268311129561e+04 -1.7000075116630638e+05 -6.0957465238382146e+07 
+5.7999999999999998e+00 -5.9244234921530681e-01 +8.1114979298132219e+00 -7.3761439054642841e-01 +4.0458694054937157e+00 +1.1906978185441223e+04 -1.7049215238249218e+05 -6.0779019135039233e+07 
+5.9000000000000004e+00 -5.9244250271924381e-01 +8.1114711579251360e+00 -7.3613021941983725e-01 +4.2926240336218919e+00 +1.1858003892743434e+04 -1.7076803864100564e+05 -6.0554953708899572e+07 
+5.9999999999999902e+00 -5.9244266399494150e-01 +8.1114432306255289e+00 -7.3385003568337126e-01 +4.5131217498249256e+00 +1.1797374947774928e+04 -1.7080157787331709e+05 -6.0285383433433585e+07 
+6.0999999999999899e+00 -5.9244283290887390e-01 +8.1114142717073996e+00 -7.3078792030492601e-01 +4.7036176806677332e+00 +1.1725345058687617e+04 -1.7057262197325082e+05 -5.9971391991992556e+07 
+6.1999999999999904e+00 -5.9244300967869801e-01 +8.1113844950061136e+00 -7.2700949829757600e-01 +4.8634925660682402e+00 +1.1643075718538012e+04 -1.7008757476776993e+05 -5.9617883393840633e+07 
+6.2999999999999901e+00 -5.9244319460591743e-01 +8.1113541403212750e+00 -7.2259408087353827e-01 +4.9928877974923500e+00 +1.1551958707067157e+04 -1.6935949219775482e+05 -5.9230704384773903e+07 
+6.3999999999999897e+00 -5.9244338799212959e-01 +8.1113234474568614e+00 -7.1762098326143842e-01 +5.0919445681143447e+00 +1.1453385900702629e+04 -1.6840142900855429e+05 -5.8815702196776025e+07 
+6.4999999999999902e+00 -5.9244359013884074e-01 +8.1112926562366781e+00 -7.1216951760559311e-01 +5.1608034552988933e+00 +1.1348749135012431e+04 -1.6722643648028883e+05 -5.8378723883920625e+07 
+6.5999999999999899e+00 -5.9244380134768893e-01 +8.1112620064901986e+00 -7.0631900284679316e-01 +5.1996047762497888e+00 +1.1239440397092058e+04 -1.6584756433264259e+05 -5.7925617247331508e+07 
+6.6999999999999904e+00 -5.9244402192034307e-01 +8.1112317380685646e+00 -7.0014875546598032e-01 +5.2084881603131441e+00 +1.1126851650889048e+04 -1.6427785836955320e+05 -5.7462230006960966e+07 
+6.7999999999999901e+00 -5.9244425215835017e-01 +8.1112020908302753e+00 -6.9373809741813020e-01 +5.1875929348013390e+00 +1.1012374987508329e+04 -1.6253036263017671e+05 -5.6994410513095573e+07 
+6.8999999999999897e+00 -5.9244449236345975e-01 +8.1111733046505741e+00 -6.8716634892089778e-01 +5.1370578703871992e+00 +1.0897402486886022e+04 -1.6061811798664331e+05 -5.6528007082768373e+07 
+6.9999999999999902e+00 -5.9244474283739823e-01 +8.1111456194202081e+00 -6.8051283517957295e-01 +5.0570212046319885e+00 +1.0783326353376713e+04 -1.5855416223282559e+05 -5.6068868667577729e+07 
+7.0999999999999899e+00 -5.9244500388183363e-01 +8.1111192750467573e+00 -6.7385688283892176e-01 +4.9476205943386757e+00 +1.0671538838649849e+04 -1.5635152981793633e+05 -5.5622844453889862e+07 
+7.1999999999999904e+00 -5.9244527579852480e-01 +8.1110945114544961e+00 -6.6727782078979880e-01 +4.8089931441112803e+00 +1.0563432268594586e+04 -1.5402325207441978e+05 -5.5195784026262045e+07 
+7.2999999999999901e+00 -5.9244555888929906e-01 +8.1110715685801100e+00 -6.6085497929221493e-01 +4.6412754985887181e+00 +1.0460399021278496e+04 -1.5158235767339091e+05 -5.4793537240254223e+07 
+7.3999999999999897e+00 -5.9244585345597001e-01 +8.1110506863879372e+00 -6.5466769259007485e-01 +4.4446034143963029e+00 +1.0363831579152771e+04 -1.4904187019303429e+05 -5.4421954483100891e+07 
+7.4999999999999902e+00 -5.9244615980036253e-01 +8.1110321048496203e+00 -6.4879529616323928e-01 +4.2191123417505292e+00 +1.0275122475022485e+04 -1.4641481148270291e+05 -5.4086886404043391e+07 
+7.5999999999999899e+00 -5.9244647822438867e-01 +8.1110160639622890e+00 -6.4331712928072771e-01 +3.9649369037526423e+00 +1.0195664348711916e+04 -1.4371419866259870e+05 -5.3794184208280705e+07 
+7.6999999999999904e+00 -5.9244680902995006e-01 +8.1110028037425543e+00 -6.3831253160698020e-01 +3.6822110592512534e+00 +1.0126849874618187e+04 -1.4095304504654132e+05 -5.3549699286325775e+07 
+7.7999999999999901e+00 -5.9244715251904490e-01 +8.1109925642251515e+00 -6.3386084918960817e-01 +3.3710681400994664e+00 +1.0070071884189294e+04 -1.3814436036967908e+05 -5.3359283822122946e+07 
+7.8999999999999897e+00 -5.9244750899359633e-01 +8.1109855854654178e+00 -6.3004142936970131e-01 +3.0316407838272035e+00 +1.0026723261275989e+04 -1.3530115041111381e+05 -5.3228790269556582e+07 
+7.9999999999999902e+00 -5.9244787875562488e-01 +8.1109821075429682e+00 -6.2693362280701492e-01 +2.6640608060974511e+00 +9.9981969884367063e+03 -1.3243641628019320e+05 -5.3164071597040348e+07 
+8.0999999999999908e+00 -5.9244826197274392e-01 +8.1109823072190839e+00 -6.2459736665559373e-01 +2.2683206197129606e+00 +9.9855067990981224e+03 -1.2955894077309783e+05 -5.3169316798951969e+07 
+8.1999999999999904e+00 -5.9244865829327809e-01 +8.1109860766931874e+00 -6.2300862576180827e-01 +1.8442185608954238e+00 +9.9881005404562457e+03 -1.2666139514278038e+05 -5.3242016074452870e+07 
+8.2999999999999901e+00 -5.9244906724076707e-01 +8.1109932292266098e+00 -6.2212063336091605e-01 +1.3915759523487508e+00 +1.0005020193025315e+04 -1.2373247932181678e+05 -5.3377967193131849e+07 
+8.3999999999999897e+00 -5.9244948833871147e-01 +8.1110035780714203e+00 -6.2188661923733424e-01 +9.1021442543887909e-01 +1.0035307659721851e+04 -1.2076089503984763e+05 -5.3572967559440002e+07 
+8.4999999999999893e+00 -5.9244992111066042e-01 +8.1110169364695803e+00 -6.2225981090539839e-01 +3.9995601780714984e-01 +1.0078004786196512e+04 -1.1773534651083036e+05 -5.3822814304125041e+07 
+8.5999999999999908e+00 -5.9245036508007765e-01 +8.1110331176568859e+00 -6.2319343478157330e-01 -1.3937695993552834e-01 +1.0132153377313989e+04 -1.1464453959166483e+05 -5.4123304346781209e+07 
+8.6999999999999904e+00 -5.9245081977049896e-01 +8.1110519348604644e+00 -6.2464071064688975e-01 -7.0796182271037378e-01 +1.0196795090644135e+04 -1.1147718245753463e+05 -5.4470233890558496e+07 
+8.7999999999999794e+00 -5.9245128470539021e-01 +8.1110732012947366e+00 -6.2655485908657327e-01 -1.3059754110607324e+00 +1.0270971581984679e+04 -1.0822198611135065e+05 -5.4859399124249108e+07 
+8.8999999999999808e+00 -5.9245175940820194e-01 +8.1110967301675121e+00 -6.2888909392320202e-01 -1.9335942470710650e+00 +1.0353724357419331e+04 -1.0486766354285135e+05 -5.5286595510021858e+07 
+8.9999999999999805e+00 -5.9245224340241365e-01 +8.1111223346751231e+00 -6.3159662813112349e-01 -2.5909944100089897e+00 +1.0444094886382243e+04 -1.0140293038324820e+05 -5.5747618322108984e+07 
+9.0999999999999801e+00 -5.9245273621145111e-01 +8.1111498280021426e+00 -6.3463067171713605e-01 -3.2783514968590519e+00 +1.0541124556705106e+04 -9.7816505223678920e+04 -5.6238262425749399e+07 
+9.1999999999999797e+00 -5.9245323735870259e-01 +8.1111790233291678e+00 -6.3794443122847089e-01 -3.9958408562592673e+00 +1.0643854671493908e+04 -9.4097108226645098e+04 -5.6754322275960058e+07 
+9.2999999999999794e+00 -5.9245374636762160e-01 +8.1112097338154374e+00 -6.4149110704031420e-01 -4.7436371004810960e+00 +1.0751326394636990e+04 -9.0233463897758178e+04 -5.7291591654331215e+07 
+9.3999999999999808e+00 -5.9245426276157731e-01 +8.1112417726169390e+00 -6.4522389946840253e-01 -5.5219145914783985e+00 +1.0862580856191653e+04 -8.6214298375747137e+04 -5.7845864143178627e+07 
+9.4999999999999805e+00 -5.9245478606394986e-01 +8.1112749528715540e+00 -6.4909600320989325e-01 -6.3308470234278706e+00 +1.0976659063999246e+04 -8.2028341806678960e+04 -5.8412932749610603e+07 
+9.5999999999999801e+00 -5.9245531579802724e-01 +8.1113090877129022e+00 -6.5306061014672179e-01 -7.1706078254264671e+00 +1.1092601941402243e+04 -7.7664325988884288e+04 -5.8988590048263013e+07 
+9.6999999999999797e+00 -5.9245585148723234e-01 +8.1113439902539870e+00 -6.5707090838533477e-01 -8.0413696753084523e+00 +1.1209450317470448e+04 -7.3110987238961912e+04 -5.9568628155836135e+07 
+9.7999999999999794e+00 -5.9245639265482497e-01 +8.1113794736004543e+00 -6.6108008084013969e-01 -8.9433048839533438e+00 +1.1326244891045522e+04 -6.8357064129775245e+04 -6.0148838539749481e+07 
+9.8999999999999808e+00 -5.9245693882412642e-01 +8.1114153508449238e+00 -6.6504130825770624e-01 -9.8765852138492782e+00 +1.1442026296377184e+04 -6.3391298606993347e+04 -6.0725012350481555e+07 
+9.9999999999999805e+00 -5.9245748951841204e-01 +8.1114514350621576e+00 -6.6890776630630411e-01 -1.0841381713152408e+01 +1.1555835046649019e+04 -5.8202436890814177e+04 -6.1292940149939403e+07 
+1.0100000000000000e+01 -5.9245804438322636e-01 +8.1114875516044211e+00 -6.7263022225369484e-01 -1.1836922749844419e+01 +1.1666707028784040e+04 -5.2786829827755733e+04 -6.1848444906843692e+07 
