# trajectory
# s[mm] rx[mm] ry[mm] rz[mm] px[rad] py[rad] pz[rad]
0.0000000000000000e+00 +7.9199999999999999e+00 +0.0000000000000000e+00 +0.0000000000000000e+00 +0.0000000000000000e+00 +0.0000000000000000e+00 +1.0000000000000000e+00
1.0000000000000001e-01 +7.9199997169720211e+00 +0.0000000000000000e+00 +9.9999999999465961e-02 -5.6605594269635572e-06 +0.0000000000000000e+00 +9.9999999998397904e-01
2.0000000000000001e-01 +7.9199988678881432e+00 +0.0000000000000000e+00 +1.9999999999572773e-01 -1.1321117987894136e-05 +0.0000000000000000e+00 +9.9999999993591615e-01
3.0000000000000004e-01 +7.9199974527484525e+00 +0.0000000000000000e+00 +2.9999999998558113e-01 -1.6981675677364810e-05 +0.0000000000000000e+00 +9.9999999985581134e-01
4.0000000000000002e-01 +7.9199954715530367e+00 +0.0000000000000000e+00 +3.9999999996582192e-01 -2.2642232495269616e-05 +0.0000000000000000e+00 +9.9999999974366460e-01
5.0000000000000000e-01 +7.9199929243019822e+00 +0.0000000000000000e+00 +4.9999999993324595e-01 -2.8302788446823524e-05 +0.0000000000000000e+00 +9.9999999959947605e-01
5.9999999999999998e-01 +7.9199898109953759e+00 +0.0000000000000000e+00 +5.9999999988464903e-01 -3.3963343542562406e-05 +0.0000000000000000e+00 +9.9999999942324558e-01
6.9999999999999996e-01 +7.9199861316333022e+00 +0.0000000000000000e+00 +6.9999999981682692e-01 -3.9623897798343010e-05 +0.0000000000000000e+00 +9.9999999921497329e-01
7.9999999999999993e-01 +7.9199818862158438e+00 +0.0000000000000000e+00 +7.9999999972657554e-01 -4.5284451235342937e-05 +0.0000000000000000e+00 +9.9999999897465919e-01
8.9999999999999991e-01 +7.9199770747430813e+00 +0.0000000000000000e+00 +8.9999999961069066e-01 -5.0945003880060621e-05 +0.0000000000000000e+00 +9.9999999870230327e-01
9.9999999999999989e-01 +7.9199716972150931e+00 +0.0000000000000000e+00 +9.9999999946596807e-01 -5.6605555764315290e-05 +0.0000000000000000e+00 +9.9999999839790554e-01
1.0999999999999999e+00 +7.9199657536319528e+00 +0.0000000000000000e+00 +1.0999999992892038e+00 -6.2266106925246966e-05 +0.0000000000000000e+00 +9.9999999806146600e-01
1.2000000000000000e+00 +7.9199592439937305e+00 +0.0000000000000000e+00 +1.1999999990771932e+00 -6.7926657405316436e-05 +0.0000000000000000e+00 +9.9999999769298464e-01
1.3000000000000000e+00 +7.9199521683004930e+00 +0.0000000000000000e+00 +1.2999999988267326e+00 -7.3587207252305214e-05 +0.0000000000000000e+00 +9.9999999729246147e-01
1.4000000000000001e+00 +7.9199445265522996e+00 +0.0000000000000000e+00 +1.3999999985346174e+00 -7.9247756519315558e-05 +0.0000000000000000e+00 +9.9999999685989660e-01
1.5000000000000002e+00 +7.9199363187492064e+00 +0.0000000000000000e+00 +1.4999999981976437e+00 -8.4908305264770446e-05 +0.0000000000000000e+00 +9.9999999639528991e-01
1.6000000000000003e+00 +7.9199275448912623e+00 +0.0000000000000000e+00 +1.5999999978126074e+00 -9.0568853552413527e-05 +0.0000000000000000e+00 +9.9999999589864141e-01
1.7000000000000004e+00 +7.9199182049785088e+00 +0.0000000000000000e+00 +1.6999999973763040e+00 -9.6229401451309170e-05 +0.0000000000000000e+00 +9.9999999536995121e-01
1.8000000000000005e+00 +7.9199082990109826e+00 +0.0000000000000000e+00 +1.7999999968855296e+00 -1.0188994903584238e-04 +0.0000000000000000e+00 +9.9999999480921919e-01
1.9000000000000006e+00 +7.9198978269887101e+00 +0.0000000000000000e+00 +1.8999999963370797e+00 -1.0755049638571886e-04 +0.0000000000000000e+00 +9.9999999421644536e-01
2.0000000000000004e+00 +7.9198867889117111e+00 +0.0000000000000000e+00 +1.9999999957277506e+00 -1.1321104358596495e-04 +0.0000000000000000e+00 +9.9999999359162983e-01
2.1000000000000005e+00 +7.9198751847799951e+00 +0.0000000000000000e+00 +2.0999999950543375e+00 -1.1887159072653539e-04 +0.0000000000000000e+00 +9.9999999293477249e-01
2.2000000000000006e+00 +7.9198630145935649e+00 +0.0000000000000000e+00 +2.1999999943136368e+00 -1.2453213789799861e-04 +0.0000000000000000e+00 +9.9999999224587333e-01
2.3000000000000007e+00 +7.9198502783524116e+00 +0.0000000000000000e+00 +2.2999999935024440e+00 -1.3019268518722215e-04 +0.0000000000000000e+00 +9.9999999152493235e-01
2.4000000000000008e+00 +7.9198369760565202e+00 +0.0000000000000000e+00 +2.3999999926175550e+00 -1.3585323267698045e-04 +0.0000000000000000e+00 +9.9999999077194957e-01
2.5000000000000009e+00 +7.9198231077058665e+00 +0.0000000000000000e+00 +2.4999999916557658e+00 -1.4151378044595516e-04 +0.0000000000000000e+00 +9.9999998998692496e-01
2.6000000000000010e+00 +7.9198086733004187e+00 +0.0000000000000000e+00 +2.5999999906138722e+00 -1.4717432856873518e-04 +0.0000000000000000e+00 +9.9999998916985844e-01
2.7000000000000011e+00 +7.9197936728401386e+00 +0.0000000000000000e+00 +2.6999999894886697e+00 -1.5283487711581696e-04 +0.0000000000000000e+00 +9.9999998832075010e-01
2.8000000000000012e+00 +7.9197781063249790e+00 +0.0000000000000000e+00 +2.7999999882769542e+00 -1.5849542615360463e-04 +0.0000000000000000e+00 +9.9999998743959984e-01
2.9000000000000012e+00 +7.9197619737548886e+00 +0.0000000000000000e+00 +2.8999999869755215e+00 -1.6415597574441027e-04 +0.0000000000000000e+00 +9.9999998652640765e-01
3.0000000000000013e+00 +7.9197452751298094e+00 +0.0000000000000000e+00 +2.9999999855811676e+00 -1.6981652594645418e-04 +0.0000000000000000e+00 +9.9999998558117353e-01
3.1000000000000014e+00 +7.9197280104496768e+00 +0.0000000000000000e+00 +3.0999999840906884e+00 -1.7547707681386511e-04 +0.0000000000000000e+00 +9.9999998460389750e-01
3.2000000000000015e+00 +7.9197101797144223e+00 +0.0000000000000000e+00 +3.1999999825008794e+00 -1.8113762839668053e-04 +0.0000000000000000e+00 +9.9999998359457953e-01
3.3000000000000016e+00 +7.9196917829239721e+00 +0.0000000000000000e+00 +3.2999999808085363e+00 -1.8679818074084694e-04 +0.0000000000000000e+00 +9.9999998255321954e-01
3.4000000000000017e+00 +7.9196728200782474e+00 +0.0000000000000000e+00 +3.3999999790104551e+00 -1.9245873388822019e-04 +0.0000000000000000e+00 +9.9999998147981750e-01
3.5000000000000018e+00 +7.9196532911771662e+00 +0.0000000000000000e+00 +3.4999999771034318e+00 -1.9811928787656587e-04 +0.0000000000000000e+00 +9.9999998037437354e-01
3.6000000000000019e+00 +7.9196331962206425e+00 +0.0000000000000000e+00 +3.5999999750842617e+00 -2.0377984273955949e-04 +0.0000000000000000e+00 +9.9999997923688744e-01
3.7000000000000020e+00 +7.9196125352085875e+00 +0.0000000000000000e+00 +3.6999999729497413e+00 -2.0944039850678706e-04 +0.0000000000000000e+00 +9.9999997806735930e-01
3.8000000000000020e+00 +7.9195913081409097e+00 +0.0000000000000000e+00 +3.7999999706966658e+00 -2.1510095520374531e-04 +0.0000000000000000e+00 +9.9999997686578912e-01
3.9000000000000021e+00 +7.9195695150175149e+00 +0.0000000000000000e+00 +3.8999999683218309e+00 -2.2076151285184211e-04 +0.0000000000000000e+00 +9.9999997563217680e-01
4.0000000000000018e+00 +7.9195471558383073e+00 +0.0000000000000000e+00 +3.9999999658220329e+00 -2.2642207146839700e-04 +0.0000000000000000e+00 +9.9999997436652233e-01
4.1000000000000014e+00 +7.9195242306031890e+00 +0.0000000000000000e+00 +4.0999999631940671e+00 -2.3208263106675844e-04 +0.0000000000000000e+00 +9.9999997306882571e-01
4.2000000000000011e+00 +7.9195007393120607e+00 +0.0000000000000000e+00 +4.1999999604347300e+00 -2.3774319165759055e-04 +0.0000000000000000e+00 +9.9999997173908695e-01
4.3000000000000007e+00 +7.9194766819648237e+00 +0.0000000000000000e+00 +4.2999999575408170e+00 -2.4340375325015951e-04 +0.0000000000000000e+00 +9.9999997037730592e-01
4.4000000000000004e+00 +7.9194520585613768e+00 +0.0000000000000000e+00 +4.3999999545091235e+00 -2.4906431585245011e-04 +0.0000000000000000e+00 +9.9999996898348276e-01
4.5000000000000000e+00 +7.9194268691016187e+00 +0.0000000000000000e+00 +4.4999999513364459e+00 -2.5472487947116528e-04 +0.0000000000000000e+00 +9.9999996755761733e-01
4.5999999999999996e+00 +7.9194011135854483e+00 +0.0000000000000000e+00 +4.5999999480195797e+00 -2.6038544411172588e-04 +0.0000000000000000e+00 +9.9999996609970965e-01
4.6999999999999993e+00 +7.9193747920127624e+00 +0.0000000000000000e+00 +4.6999999445553202e+00 -2.6604600977827002e-04 +0.0000000000000000e+00 +9.9999996460975971e-01
4.7999999999999989e+00 +7.9193479043834580e+00 +0.0000000000000000e+00 +4.7999999409404639e+00 -2.7170657647365292e-04 +0.0000000000000000e+00 +9.9999996308776751e-01
4.8999999999999986e+00 +7.9193204506974331e+00 +0.0000000000000000e+00 +4.8999999371718062e+00 -2.7736714419944599e-04 +0.0000000000000000e+00 +9.9999996153373294e-01
4.9999999999999982e+00 +7.9192924309545836e+00 +0.0000000000000000e+00 +4.9999999332461424e+00 -2.8302771295593662e-04 +0.0000000000000000e+00 +9.9999995994765611e-01
5.0999999999999979e+00 +7.9192638451548074e+00 +0.0000000000000000e+00 +5.0999999291602691e+00 -2.8868828274212751e-04 +0.0000000000000000e+00 +9.9999995832953692e-01
5.1999999999999975e+00 +7.9192346932980007e+00 +0.0000000000000000e+00 +5.1999999249109816e+00 -2.9434885355573612e-04 +0.0000000000000000e+00 +9.9999995667937536e-01
5.2999999999999972e+00 +7.9192049753840621e+00 +0.0000000000000000e+00 +5.2999999204950763e+00 -3.0000942539319393e-04 +0.0000000000000000e+00 +9.9999995499717143e-01
5.3999999999999968e+00 +7.9191746914128887e+00 +0.0000000000000000e+00 +5.3999999159093477e+00 -3.0566999824964587e-04 +0.0000000000000000e+00 +9.9999995328292512e-01
5.4999999999999964e+00 +7.9191438413843782e+00 +0.0000000000000000e+00 +5.4999999111505931e+00 -3.1133057211894967e-04 +0.0000000000000000e+00 +9.9999995153663634e-01
5.5999999999999961e+00 +7.9191124252984313e+00 +0.0000000000000000e+00 +5.5999999062156069e+00 -3.1699114699367513e-04 +0.0000000000000000e+00 +9.9999994975830520e-01
5.6999999999999957e+00 +7.9190804431549466e+00 +0.0000000000000000e+00 +5.6999999011011857e+00 -3.2265172286510325e-04 +0.0000000000000000e+00 +9.9999994794793157e-01
5.7999999999999954e+00 +7.9190478949538257e+00 +0.0000000000000000e+00 +5.7999998958041248e+00 -3.2831229972322566e-04 +0.0000000000000000e+00 +9.9999994610551557e-01
5.8999999999999950e+00 +7.9190147806949698e+00 +0.0000000000000000e+00 +5.8999998903212205e+00 -3.3397287755674367e-04 +0.0000000000000000e+00 +9.9999994423105709e-01
5.9999999999999947e+00 +7.9189811003782822e+00 +0.0000000000000000e+00 +5.9999998846492684e+00 -3.3963345635306741e-04 +0.0000000000000000e+00 +9.9999994232455613e-01
6.0999999999999943e+00 +7.9189468540036678e+00 +0.0000000000000000e+00 +6.0999998787850638e+00 -3.4529403609843750e-04 +0.0000000000000000e+00 +9.9999994038601270e-01
6.1999999999999940e+00 +7.9189120415710317e+00 +0.0000000000000000e+00 +6.1999998727254031e+00 -3.5095461677926991e-04 +0.0000000000000000e+00 +9.9999993841542678e-01
6.2999999999999936e+00 +7.9188766630802814e+00 +0.0000000000000000e+00 +6.2999998664670818e+00 -3.5661519838350181e-04 +0.0000000000000000e+00 +9.9999993641279827e-01
6.3999999999999932e+00 +7.9188407185313245e+00 +0.0000000000000000e+00 +6.3999998600068952e+00 -3.6227578090071417e-04 +0.0000000000000000e+00 +9.9999993437812729e-01
6.4999999999999929e+00 +7.9188042079240706e+00 +0.0000000000000000e+00 +6.4999998533416390e+00 -3.6793636432213200e-04 +0.0000000000000000e+00 +9.9999993231141382e-01
6.5999999999999925e+00 +7.9187671312584298e+00 +0.0000000000000000e+00 +6.5999998464681093e+00 -3.7359694864062473e-04 +0.0000000000000000e+00 +9.9999993021265776e-01
6.6999999999999922e+00 +7.9187294885343125e+00 +0.0000000000000000e+00 +6.6999998393831026e+00 -3.7925753385070640e-04 +0.0000000000000000e+00 +9.9999992808185911e-01
6.7999999999999918e+00 +7.9186912797516298e+00 +0.0000000000000000e+00 +6.7999998320834134e+00 -3.8491811994853607e-04 +0.0000000000000000e+00 +9.9999992591901787e-01
6.8999999999999915e+00 +7.9186525049102929e+00 +0.0000000000000000e+00 +6.8999998245658380e+00 -3.9057870693191821e-04 +0.0000000000000000e+00 +9.9999992372413404e-01
6.9999999999999911e+00 +7.9186131640102140e+00 +0.0000000000000000e+00 +6.9999998168271720e+00 -3.9623929480030293e-04 +0.0000000000000000e+00 +9.9999992149720762e-01
7.0999999999999908e+00 +7.9185732570513032e+00 +0.0000000000000000e+00 +7.0999998088642116e+00 -4.0189988355478657e-04 +0.0000000000000000e+00 +9.9999991923823861e-01
7.1999999999999904e+00 +7.9185327840334727e+00 +0.0000000000000000e+00 +7.1999998006737522e+00 -4.0756047319811189e-04 +0.0000000000000000e+00 +9.9999991694722701e-01
7.2999999999999901e+00 +7.9184917449566337e+00 +0.0000000000000000e+00 +7.2999997922525894e+00 -4.1322106373466855e-04 +0.0000000000000000e+00 +9.9999991462417270e-01
7.3999999999999897e+00 +7.9184501398206963e+00 +0.0000000000000000e+00 +7.3999997835975186e+00 -4.1888165517049372e-04 +0.0000000000000000e+00 +9.9999991226907570e-01
7.4999999999999893e+00 +7.9184079686255702e+00 +0.0000000000000000e+00 +7.4999997747053362e+00 -4.2454224751327233e-04 +0.0000000000000000e+00 +9.9999990988193599e-01
7.5999999999999890e+00 +7.9183652313711637e+00 +0.0000000000000000e+00 +7.5999997655728375e+00 -4.3020284077233757e-04 +0.0000000000000000e+00 +9.9999990746275358e-01
7.6999999999999886e+00 +7.9183219280573853e+00 +0.0000000000000000e+00 +7.6999997561968190e+00 -4.3586343495867144e-04 +0.0000000000000000e+00 +9.9999990501152847e-01
7.7999999999999883e+00 +7.9182780586841410e+00 +0.0000000000000000e+00 +7.7999997465740751e+00 -4.4152403008490527e-04 +0.0000000000000000e+00 +9.9999990252826065e-01
7.8999999999999879e+00 +7.9182336232513366e+00 +0.0000000000000000e+00 +7.8999997367014023e+00 -4.4718462616532022e-04 +0.0000000000000000e+00 +9.9999990001295003e-01
7.9999999999999876e+00 +7.9181886217588753e+00 +0.0000000000000000e+00 +7.9999997265755969e+00 -4.5284522321584772e-04 +0.0000000000000000e+00 +9.9999989746559659e-01
8.0999999999999872e+00 +7.9181430542066602e+00 +0.0000000000000000e+00 +8.0999997161934534e+00 -4.5850582125421074e-04 +0.0000000000000000e+00 +9.9999989488620034e-01
8.1999999999999869e+00 +7.9180969205945910e+00 +0.0000000000000000e+00 +8.1999997055517682e+00 -4.6416642030146959e-04 +0.0000000000000000e+00 +9.9999989227476127e-01
8.2999999999999865e+00 +7.9180502209225656e+00 +0.0000000000000000e+00 +8.2999996946473367e+00 -4.6982702038356747e-04 +0.0000000000000000e+00 +9.9999988963127928e-01
8.3999999999999861e+00 +7.9180029551904791e+00 +0.0000000000000000e+00 +8.3999996834769561e+00 -4.7548762153147133e-04 +0.0000000000000000e+00 +9.9999988695575437e-01
8.4999999999999858e+00 +7.9179551233982233e+00 +0.0000000000000000e+00 +8.4999996720374202e+00 -4.8114822378117169e-04 +0.0000000000000000e+00 +9.9999988424818653e-01
8.5999999999999854e+00 +7.9179067255456852e+00 +0.0000000000000000e+00 +8.5999996603255262e+00 -4.8680882717368277e-04 +0.0000000000000000e+00 +9.9999988150857577e-01
8.6999999999999851e+00 +7.9178577616327486e+00 +0.0000000000000000e+00 +8.6999996483380677e+00 -4.9246943175504257e-04 +0.0000000000000000e+00 +9.9999987873692198e-01
8.7999999999999847e+00 +7.9178082316592926e+00 +0.0000000000000000e+00 +8.7999996360718420e+00 -4.9813003757631300e-04 +0.0000000000000000e+00 +9.9999987593322504e-01
8.8999999999999844e+00 +7.9177581356251903e+00 +0.0000000000000000e+00 +8.8999996235236445e+00 -5.0379064469357982e-04 +0.0000000000000000e+00 +9.9999987309748506e-01
8.9999999999999840e+00 +7.9177074735303083e+00 +0.0000000000000000e+00 +8.9999996106902707e+00 -5.0945125316795281e-04 +0.0000000000000000e+00 +9.9999987022970183e-01
9.0999999999999837e+00 +7.9176562453745092e+00 +0.0000000000000000e+00 +9.0999995975685160e+00 -5.1511186306556591e-04 +0.0000000000000000e+00 +9.9999986732987534e-01
9.1999999999999833e+00 +7.9176044511576462e+00 +0.0000000000000000e+00 +9.1999995841551776e+00 -5.2077247445757693e-04 +0.0000000000000000e+00 +9.9999986439800559e-01
9.2999999999999829e+00 +7.9175520908795658e+00 +0.0000000000000000e+00 +9.2999995704470493e+00 -5.2643308742016798e-04 +0.0000000000000000e+00 +9.9999986143409247e-01
9.3999999999999826e+00 +7.9174991645401072e+00 +0.0000000000000000e+00 +9.3999995564409282e+00 -5.3209370203454560e-04 +0.0000000000000000e+00 +9.9999985843813599e-01
9.4999999999999822e+00 +7.9174456721391007e+00 +0.0000000000000000e+00 +9.4999995421336081e+00 -5.3775431838694050e-04 +0.0000000000000000e+00 +9.9999985541013592e-01
9.5999999999999819e+00 +7.9173916136763687e+00 +0.0000000000000000e+00 +9.5999995275218861e+00 -5.4341493656860781e-04 +0.0000000000000000e+00 +9.9999985235009226e-01
9.6999999999999815e+00 +7.9173369891517229e+00 +0.0000000000000000e+00 +9.6999995126025578e+00 -5.4907555667582718e-04 +0.0000000000000000e+00 +9.9999984925800500e-01
9.7999999999999812e+00 +7.9172817985649662e+00 +0.0000000000000000e+00 +9.7999994973724185e+00 -5.5473617880990277e-04 +0.0000000000000000e+00 +9.9999984613387394e-01
9.8999999999999808e+00 +7.9172260419158897e+00 +0.0000000000000000e+00 +9.8999994818282637e+00 -5.6039680307716359e-04 +0.0000000000000000e+00 +9.9999984297769906e-01
9.9999999999999805e+00 +7.9171697192042760e+00 +0.0000000000000000e+00 +9.9999994659668889e+00 -5.6605742958896305e-04 +0.0000000000000000e+00 +9.9999983978948026e-01
1.0099999999999980e+01 +7.9171128304298941e+00 +0.0000000000000000e+00 +1.0099999449785091e+01 -5.7171805846165569e-04 +0.0000000000000000e+00 +9.9999983656921732e-01
1.0199999999999980e+01 +7.9170553755925015e+00 +0.0000000000000000e+00 +1.0199999433279665e+01 -5.7737868981633386e-04 +0.0000000000000000e+00 +9.9999983331691022e-01
1.0299999999999979e+01 +7.9169973546918442e+00 +0.0000000000000000e+00 +1.0299999416447406e+01 -5.8303932377856476e-04 +0.0000000000000000e+00 +9.9999983003255888e-01
1.0399999999999979e+01 +7.9169387677276548e+00 +0.0000000000000000e+00 +1.0399999399285109e+01 -5.8869996047836637e-04 +0.0000000000000000e+00 +9.9999982671616316e-01
1.0499999999999979e+01 +7.9168796146996527e+00 +0.0000000000000000e+00 +1.0499999381789571e+01 -5.9436060005020716e-04 +0.0000000000000000e+00 +9.9999982336772286e-01
1.0599999999999978e+01 +7.9168198956075440e+00 +0.0000000000000000e+00 +1.0599999363957586e+01 -6.0002124263300620e-04 +0.0000000000000000e+00 +9.9999981998723786e-01
1.0699999999999978e+01 +7.9167596104510203e+00 +0.0000000000000000e+00 +1.0699999345785951e+01 -6.0568188837013294e-04 +0.0000000000000000e+00 +9.9999981657470804e-01
1.0799999999999978e+01 +7.9166987592297593e+00 +0.0000000000000000e+00 +1.0799999327271459e+01 -6.1134253740940687e-04 +0.0000000000000000e+00 +9.9999981313013331e-01
1.0899999999999977e+01 +7.9166373419434235e+00 +0.0000000000000000e+00 +1.0899999308410909e+01 -6.1700318990309778e-04 +0.0000000000000000e+00 +9.9999980965351354e-01
1.0999999999999977e+01 +7.9165753585916585e+00 +0.0000000000000000e+00 +1.0999999289201094e+01 -6.2266384600792514e-04 +0.0000000000000000e+00 +9.9999980614484851e-01
1.1099999999999977e+01 +7.9165128091740957e+00 +0.0000000000000000e+00 +1.1099999269638811e+01 -6.2832450588505822e-04 +0.0000000000000000e+00 +9.9999980260413801e-01
1.1199999999999976e+01 +7.9164496936903497e+00 +0.0000000000000000e+00 +1.1199999249720854e+01 -6.3398516970011593e-04 +0.0000000000000000e+00 +9.9999979903138192e-01
1.1299999999999976e+01 +7.9163860121400180e+00 +0.0000000000000000e+00 +1.1299999229444019e+01 -6.3964583762316657e-04 +0.0000000000000000e+00 +9.9999979542658013e-01
1.1399999999999975e+01 +7.9163217645226815e+00 +0.0000000000000000e+00 +1.1399999208805102e+01 -6.4530650982872753e-04 +0.0000000000000000e+00 +9.9999979178973231e-01
1.1499999999999975e+01 +7.9162569508379033e+00 +0.0000000000000000e+00 +1.1499999187800897e+01 -6.5096718649576535e-04 +0.0000000000000000e+00 +9.9999978812083845e-01
1.1599999999999975e+01 +7.9161915710852275e+00 +0.0000000000000000e+00 +1.1599999166428201e+01 -6.5662786780769551e-04 +0.0000000000000000e+00 +9.9999978441989823e-01
1.1699999999999974e+01 +7.9161256252641810e+00 +0.0000000000000000e+00 +1.1699999144683808e+01 -6.6228855395238204e-04 +0.0000000000000000e+00 +9.9999978068691142e-01
1.1799999999999974e+01 +7.9160591133742697e+00 +0.0000000000000000e+00 +1.1799999122564515e+01 -6.6794924512213758e-04 +0.0000000000000000e+00 +9.9999977692187791e-01
