# field on trajectory
# s[mm] rx[mm] ry[mm] rz[mm] bx[T] by[T] bz[T]
0.0000000000000000e+00 +8.1649999999999991e+00 +0.0000000000000000e+00 +0.0000000000000000e+00 -3.2233022059861942e-02 -5.9266479880848932e-01 +5.8681830651721133e-03
1.0000000000000001e-01 +8.1649997168325648e+00 +0.0000000000000000e+00 +9.9999999999465433e-02 -3.2232947945565679e-02 -5.9266483881254428e-01 +5.8682690011647486e-03
2.0000000000000001e-01 +8.1649988673302367e+00 +0.0000000000000000e+00 +1.9999999999572352e-01 -3.2232859414026385e-02 -5.9266489208501394e-01 +5.8683568242606779e-03
3.0000000000000004e-01 +8.1649974514929617e+00 +0.0000000000000000e+00 +2.9999999998556692e-01 -3.2232757475596154e-02 -5.9266495856501611e-01 +5.8684464490279037e-03
4.0000000000000002e-01 +8.1649954693206777e+00 +0.0000000000000000e+00 +3.9999999996578822e-01 -3.2232643140625246e-02 -5.9266503819167538e-01 +5.8685377900338856e-03
5.0000000000000000e-01 +8.1649929208133081e+00 +0.0000000000000000e+00 +4.9999999993318012e-01 -3.2232517419461038e-02 -5.9266513090412021e-01 +5.8686307618458994e-03
5.9999999999999998e-01 +8.1649898059707642e+00 +0.0000000000000000e+00 +5.9999999988453523e-01 -3.2232381322446692e-02 -5.9266523664148296e-01 +5.8687252790313822e-03
6.9999999999999996e-01 +8.1649861247929447e+00 +0.0000000000000000e+00 +6.9999999981664629e-01 -3.2232235859919904e-02 -5.9266535534289622e-01 +5.8688212561582818e-03
7.9999999999999993e-01 +8.1649818772797378e+00 +0.0000000000000000e+00 +7.9999999972630587e-01 -3.2232082042211729e-02 -5.9266548694749199e-01 +5.8689186077954076e-03
8.9999999999999991e-01 +8.1649770634310173e+00 +0.0000000000000000e+00 +8.9999999961030652e-01 -3.2231920879645333e-02 -5.9266563139439943e-01 +5.8690172485127883e-03
9.9999999999999989e-01 +8.1649716832466446e+00 +0.0000000000000000e+00 +9.9999999946544094e-01 -3.2231753382534652e-02 -5.9266578862274266e-01 +5.8691170928820077e-03
1.0999999999999999e+00 +8.1649657367264705e+00 +0.0000000000000000e+00 +1.0999999992885017e+00 -3.2231580561183339e-02 -5.9266595857163906e-01 +5.8692180554765746e-03
1.2000000000000000e+00 +8.1649592238703317e+00 +0.0000000000000000e+00 +1.1999999990762815e+00 -3.2231403425883341e-02 -5.9266614118019822e-01 +5.8693200508722508e-03
1.3000000000000000e+00 +8.1649521446780557e+00 +0.0000000000000000e+00 +1.2999999988255730e+00 -3.2231222986913804e-02 -5.9266633638751809e-01 +5.8694229936474196e-03
1.4000000000000001e+00 +8.1649444991494544e+00 +0.0000000000000000e+00 +1.3999999985331688e+00 -3.2231040254539774e-02 -5.9266654413268549e-01 +5.8695267983834322e-03
1.5000000000000002e+00 +8.1649362872843305e+00 +0.0000000000000000e+00 +1.4999999981958616e+00 -3.2230856239010945e-02 -5.9266676435477195e-01 +5.8696313796649463e-03
1.6000000000000003e+00 +8.1649275090824727e+00 +0.0000000000000000e+00 +1.5999999978104438e+00 -3.2230671950560431e-02 -5.9266699699283443e-01 +5.8697366520803007e-03
1.7000000000000004e+00 +8.1649181645436606e+00 +0.0000000000000000e+00 +1.6999999973737081e+00 -3.2230488399403574e-02 -5.9266724198590992e-01 +5.8698425302218344e-03
1.8000000000000005e+00 +8.1649082536676598e+00 +0.0000000000000000e+00 +1.7999999968824472e+00 -3.2230306595736634e-02 -5.9266749927301732e-01 +5.8699489286862657e-03
1.9000000000000006e+00 +8.1648977764542252e+00 +0.0000000000000000e+00 +1.8999999963334535e+00 -3.2230127549735629e-02 -5.9266776879315208e-01 +5.8700557620750262e-03
2.0000000000000004e+00 +8.1648867329030992e+00 +0.0000000000000000e+00 +1.9999999957235197e+00 -3.2229952271555042e-02 -5.9266805048528759e-01 +5.8701629449946155e-03
2.1000000000000005e+00 +8.1648751230140117e+00 +0.0000000000000000e+00 +2.0999999950494384e+00 -3.2229781664528147e-02 -5.9266834409838887e-01 +5.8702704117862374e-03
2.2000000000000006e+00 +8.1648629467866840e+00 +0.0000000000000000e+00 +2.1999999943080022e+00 -3.2229616204783318e-02 -5.9266864862147584e-01 +5.8703781757118607e-03
2.3000000000000007e+00 +8.1648502042208246e+00 +0.0000000000000000e+00 +2.2999999934960038e+00 -3.2229456261662418e-02 -5.9266896285357884e-01 +5.8704862697626682e-03
2.4000000000000008e+00 +8.1648368953161352e+00 +0.0000000000000000e+00 +2.3999999926102356e+00 -3.2229302204525599e-02 -5.9266928559372190e-01 +5.8705947269288624e-03
2.5000000000000009e+00 +8.1648230200723066e+00 +0.0000000000000000e+00 +2.4999999916474898e+00 -3.2229154402754485e-02 -5.9266961564092657e-01 +5.8707035801992867e-03
2.6000000000000010e+00 +8.1648085784890245e+00 +0.0000000000000000e+00 +2.5999999906045597e+00 -3.2229013225755380e-02 -5.9266995179420812e-01 +5.8708128625610118e-03
2.7000000000000011e+00 +8.1647935705659691e+00 +0.0000000000000000e+00 +2.6999999894782372e+00 -3.2228879042962538e-02 -5.9267029285257966e-01 +5.8709226069989682e-03
2.8000000000000012e+00 +8.1647779963028135e+00 +0.0000000000000000e+00 +2.7999999882653150e+00 -3.2228752223841362e-02 -5.9267063761505223e-01 +5.8710328464955264e-03
2.9000000000000012e+00 +8.1647618556992292e+00 +0.0000000000000000e+00 +2.8999999869625861e+00 -3.2228633137891691e-02 -5.9267098488063374e-01 +5.8711436140301224e-03
3.0000000000000013e+00 +8.1647451487548857e+00 +0.0000000000000000e+00 +2.9999999855668427e+00 -3.2228522154650975e-02 -5.9267133344833178e-01 +5.8712549425788537e-03
3.1000000000000014e+00 +8.1647278754694508e+00 +0.0000000000000000e+00 +3.0999999840748771e+00 -3.2228419643697513e-02 -5.9267168211715360e-01 +5.8713668651140857e-03
3.2000000000000015e+00 +8.1647100358425906e+00 +0.0000000000000000e+00 +3.1999999824834822e+00 -3.2228325974653728e-02 -5.9267202968610566e-01 +5.8714794146040653e-03
3.3000000000000016e+00 +8.1646916298739747e+00 +0.0000000000000000e+00 +3.2999999807894502e+00 -3.2228241517189352e-02 -5.9267237495419656e-01 +5.8715926240125215e-03
3.4000000000000017e+00 +8.1646726575632744e+00 +0.0000000000000000e+00 +3.3999999789895736e+00 -3.2228166641024673e-02 -5.9267271672043498e-01 +5.8717065262982697e-03
3.5000000000000018e+00 +8.1646531189101630e+00 +0.0000000000000000e+00 +3.4999999770806451e+00 -3.2228101715933759e-02 -5.9267305378383306e-01 +5.8718211544148240e-03
3.6000000000000019e+00 +8.1646330139143188e+00 +0.0000000000000000e+00 +3.5999999750594571e+00 -3.2228047111747718e-02 -5.9267338494340627e-01 +5.8719365413099998e-03
3.7000000000000020e+00 +8.1646123425754258e+00 +0.0000000000000000e+00 +3.6999999729228024e+00 -3.2228003198357891e-02 -5.9267370899817240e-01 +5.8720527199255228e-03
3.8000000000000020e+00 +8.1645911048931765e+00 +0.0000000000000000e+00 +3.7999999706674727e+00 -3.2227970345719101e-02 -5.9267402474715414e-01 +5.8721697231966276e-03
3.9000000000000021e+00 +8.1645693008672691e+00 +0.0000000000000000e+00 +3.8999999682902615e+00 -3.2227948923852875e-02 -5.9267433098937949e-01 +5.8722875840516737e-03
4.0000000000000018e+00 +8.1645469304974121e+00 +0.0000000000000000e+00 +3.9999999657879606e+00 -3.2227939302850679e-02 -5.9267462652388225e-01 +5.8724063354117575e-03
4.1000000000000014e+00 +8.1645239937833232e+00 +0.0000000000000000e+00 +4.0999999631573623e+00 -3.2227941595038355e-02 -5.9267491051083099e-01 +5.8725260200560691e-03
4.2000000000000011e+00 +8.1645004907247323e+00 +0.0000000000000000e+00 +4.1999999603952594e+00 -3.2227954881424520e-02 -5.9267518355492388e-01 +5.8726467202222937e-03
4.3000000000000007e+00 +8.1644764213213783e+00 +0.0000000000000000e+00 +4.2999999574984447e+00 -3.2227977985152215e-02 -5.9267544662200333e-01 +5.8727685280150531e-03
4.4000000000000004e+00 +8.1644517855730108e+00 +0.0000000000000000e+00 +4.3999999544637101e+00 -3.2228009729325699e-02 -5.9267570067792896e-01 +5.8728915355411547e-03
4.5000000000000000e+00 +8.1644265834793881e+00 +0.0000000000000000e+00 +4.4999999512878484e+00 -3.2228048937006891e-02 -5.9267594668857937e-01 +5.8730158349098007e-03
4.5999999999999996e+00 +8.1644008150402776e+00 +0.0000000000000000e+00 +4.5999999479676523e+00 -3.2228094431211919e-02 -5.9267618561985169e-01 +5.8731415182328058e-03
4.6999999999999993e+00 +8.1643744802554483e+00 +0.0000000000000000e+00 +4.6999999444999139e+00 -3.2228145034907521e-02 -5.9267641843766450e-01 +5.8732686776248278e-03
4.7999999999999989e+00 +8.1643475791246818e+00 +0.0000000000000000e+00 +4.7999999408814258e+00 -3.2228199571007532e-02 -5.9267664610795745e-01 +5.8733974052035728e-03
4.8999999999999986e+00 +8.1643201116477595e+00 +0.0000000000000000e+00 +4.8999999371089809e+00 -3.2228256862369423e-02 -5.9267686959669375e-01 +5.8735277930900207e-03
4.9999999999999982e+00 +8.1642920778244683e+00 +0.0000000000000000e+00 +4.9999999331793710e+00 -3.2228315731790698e-02 -5.9267708986986034e-01 +5.8736599334086419e-03
5.0999999999999979e+00 +8.1642634776545986e+00 +0.0000000000000000e+00 +5.0999999290893889e+00 -3.2228375002005399e-02 -5.9267730789346995e-01 +5.8737939182876139e-03
5.1999999999999975e+00 +8.1642343111379443e+00 +0.0000000000000000e+00 +5.1999999248358266e+00 -3.2228433495680615e-02 -5.9267752463356183e-01 +5.8739298398590416e-03
5.2999999999999972e+00 +8.1642045782742976e+00 +0.0000000000000000e+00 +5.2999999204154769e+00 -3.2228490035412907e-02 -5.9267774105620274e-01 +5.8740677902591699e-03
5.3999999999999968e+00 +8.1641742790634542e+00 +0.0000000000000000e+00 +5.3999999158251324e+00 -3.2228543443724840e-02 -5.9267795812748858e-01 +5.8742078616286150e-03
5.4999999999999964e+00 +8.1641434135052062e+00 +0.0000000000000000e+00 +5.4999999110615851e+00 -3.2228592543061395e-02 -5.9267817681354518e-01 +5.8743501461125600e-03
5.5999999999999961e+00 +8.1641119815993459e+00 +0.0000000000000000e+00 +5.5999999061216279e+00 -3.2228636155786493e-02 -5.9267839808052969e-01 +5.8744947358609929e-03
5.6999999999999957e+00 +8.1640799833456636e+00 +0.0000000000000000e+00 +5.6999999010020526e+00 -3.2228673104179525e-02 -5.9267862289463180e-01 +5.8746417230289161e-03
5.7999999999999954e+00 +8.1640474187439445e+00 +0.0000000000000000e+00 +5.7999998956996528e+00 -3.2228702210431677e-02 -5.9267885222207517e-01 +5.8747911997765615e-03
5.8999999999999950e+00 +8.1640142877939699e+00 +0.0000000000000000e+00 +5.8999998902112196e+00 -3.2228722296642573e-02 -5.9267908702911765e-01 +5.8749432582696128e-03
5.9999999999999947e+00 +8.1639805904955178e+00 +0.0000000000000000e+00 +5.9999998845335458e+00 -3.2228732184816672e-02 -5.9267932828205394e-01 +5.8750979906794188e-03
6.0999999999999943e+00 +8.1639463268483574e+00 +0.0000000000000000e+00 +6.0999998786634242e+00 -3.2228731068400428e-02 -5.9267957683279693e-01 +5.8752554237607195e-03
6.1999999999999940e+00 +8.1639114968522524e+00 +0.0000000000000000e+00 +6.1999998725976475e+00 -3.2228719626944805e-02 -5.9267983307561489e-01 +5.8754153225801659e-03
6.2999999999999936e+00 +8.1638761005069593e+00 +0.0000000000000000e+00 +6.2999998663330077e+00 -3.2228698911546831e-02 -5.9268009729036808e-01 +5.8755773867784130e-03
6.3999999999999932e+00 +8.1638401378122278e+00 +0.0000000000000000e+00 +6.3999998598662966e+00 -3.2228669973317026e-02 -5.9268036975692506e-01 +5.8757413159920731e-03
6.4999999999999929e+00 +8.1638036087677985e+00 +0.0000000000000000e+00 +6.4999998531943071e+00 -3.2228633863380603e-02 -5.9268065075516352e-01 +5.8759068098535169e-03
6.5999999999999925e+00 +8.1637665133734032e+00 +0.0000000000000000e+00 +6.5999998463138319e+00 -3.2228591632878549e-02 -5.9268094056496989e-01 +5.8760735679906986e-03
6.6999999999999922e+00 +8.1637288516287647e+00 +0.0000000000000000e+00 +6.6999998392216629e+00 -3.2228544332969032e-02 -5.9268123946623896e-01 +5.8762412900269590e-03
6.7999999999999918e+00 +8.1636906235336006e+00 +0.0000000000000000e+00 +6.7999998319145929e+00 -3.2228493014828372e-02 -5.9268154773887372e-01 +5.8764096755808343e-03
6.8999999999999915e+00 +8.1636518290876179e+00 +0.0000000000000000e+00 +6.8999998243894138e+00 -3.2228438729652371e-02 -5.9268186566278613e-01 +5.8765784242658797e-03
6.9999999999999911e+00 +8.1636124682905127e+00 +0.0000000000000000e+00 +6.9999998166429185e+00 -3.2228382528657479e-02 -5.9268219351789608e-01 +5.8767472356904714e-03
7.0999999999999908e+00 +8.1635725411419742e+00 +0.0000000000000000e+00 +7.0999998086718987e+00 -3.2228325463081964e-02 -5.9268253158413209e-01 +5.8769158094576206e-03
7.1999999999999904e+00 +8.1635320476416791e+00 +0.0000000000000000e+00 +7.1999998004731474e+00 -3.2228268584187134e-02 -5.9268288014143022e-01 +5.8770838451647905e-03
7.2999999999999901e+00 +8.1634909877892969e+00 +0.0000000000000000e+00 +7.2999997920434563e+00 -3.2228212943258498e-02 -5.9268323946973556e-01 +5.8772510424037064e-03
7.3999999999999897e+00 +8.1634493615844850e+00 +0.0000000000000000e+00 +7.3999997833796174e+00 -3.2228159591607047e-02 -5.9268360984900126e-01 +5.8774171007601713e-03
7.4999999999999893e+00 +8.1634071690268897e+00 +0.0000000000000000e+00 +7.4999997744784235e+00 -3.2228109580570298e-02 -5.9268399155918794e-01 +5.8775817198138706e-03
7.5999999999999890e+00 +8.1633644101161487e+00 +0.0000000000000000e+00 +7.5999997653366673e+00 -3.2228063961513620e-02 -5.9268438488026476e-01 +5.8777445991381929e-03
7.6999999999999886e+00 +8.1633210848518871e+00 +0.0000000000000000e+00 +7.6999997559511408e+00 -3.2228023785831353e-02 -5.9268479009220798e-01 +5.8779054383000335e-03
7.7999999999999883e+00 +8.1632771932337196e+00 +0.0000000000000000e+00 +7.7999997463186359e+00 -3.2227990104948083e-02 -5.9268520747500286e-01 +5.8780639368596239e-03
7.8999999999999879e+00 +8.1632327352612482e+00 +0.0000000000000000e+00 +7.8999997364359453e+00 -3.2227963970319705e-02 -5.9268563730864154e-01 +5.8782197943703313e-03
7.9999999999999876e+00 +8.1631877109340643e+00 +0.0000000000000000e+00 +7.9999997262998610e+00 -3.2227946433434747e-02 -5.9268607987312394e-01 +5.8783727103784728e-03
8.0999999999999872e+00 +8.1631421202517469e+00 +0.0000000000000000e+00 +8.0999997159071757e+00 -3.2227938207767905e-02 -5.9268653533115634e-01 +5.8785224774767549e-03
8.1999999999999869e+00 +8.1630959632138609e+00 +0.0000000000000000e+00 +8.1999997052546814e+00 -3.2227938654641644e-02 -5.9268700337621205e-01 +5.8786692604723498e-03
8.2999999999999865e+00 +8.1630492398199603e+00 +0.0000000000000000e+00 +8.2999996943391690e+00 -3.2227946797401000e-02 -5.9268748358439471e-01 +5.8788133172321859e-03
8.3999999999999861e+00 +8.1630019500695887e+00 +0.0000000000000000e+00 +8.3999996831574322e+00 -3.2227961659472677e-02 -5.9268797553173080e-01 +5.8789549056290722e-03
8.4999999999999858e+00 +8.1629540939622789e+00 +0.0000000000000000e+00 +8.4999996717062629e+00 -3.2227982264367558e-02 -5.9268847879416875e-01 +5.8790942835419335e-03
8.5999999999999854e+00 +8.1629056714975494e+00 +0.0000000000000000e+00 +8.5999996599824531e+00 -3.2228007635683203e-02 -5.9268899294757660e-01 +5.8792317088560081e-03
8.6999999999999851e+00 +8.1628566826749118e+00 +0.0000000000000000e+00 +8.6999996479827946e+00 -3.2228036797106285e-02 -5.9268951756773780e-01 +5.8793674394630692e-03
8.7999999999999847e+00 +8.1628071274938652e+00 +0.0000000000000000e+00 +8.7999996357040811e+00 -3.2228068772415179e-02 -5.9269005223035054e-01 +5.8795017332616455e-03
8.8999999999999844e+00 +8.1627570059538996e+00 +0.0000000000000000e+00 +8.8999996231431027e+00 -3.2228102585482393e-02 -5.9269059651102418e-01 +5.8796348481572266e-03
8.9999999999999840e+00 +8.1627063180544983e+00 +0.0000000000000000e+00 +8.9999996102966531e+00 -3.2228137260277123e-02 -5.9269114998527739e-01 +5.8797670420624847e-03
9.0999999999999837e+00 +8.1626550637951336e+00 +0.0000000000000000e+00 +9.0999995971615224e+00 -3.2228171820867658e-02 -5.9269171222853434e-01 +5.8798985728974879e-03
9.1999999999999833e+00 +8.1626032431752709e+00 +0.0000000000000000e+00 +9.1999995837345043e+00 -3.2228205291423943e-02 -5.9269228281612385e-01 +5.8800296985899118e-03
9.2999999999999829e+00 +8.1625508561943647e+00 +0.0000000000000000e+00 +9.2999995700123907e+00 -3.2228236696220110e-02 -5.9269286132327614e-01 +5.8801606770752680e-03
9.3999999999999826e+00 +8.1624979028518645e+00 +0.0000000000000000e+00 +9.3999995559919736e+00 -3.2228265059636899e-02 -5.9269344732512041e-01 +5.8802917662971006e-03
9.4999999999999822e+00 +8.1624443831472124e+00 +0.0000000000000000e+00 +9.4999995416700447e+00 -3.2228289406164158e-02 -5.9269404039668205e-01 +5.8804232242072145e-03
9.5999999999999819e+00 +8.1623902970798436e+00 +0.0000000000000000e+00 +9.5999995270433960e+00 -3.2228308760403390e-02 -5.9269464011288020e-01 +5.8805553087658878e-03
9.6999999999999815e+00 +8.1623356446491862e+00 +0.0000000000000000e+00 +9.6999995121088212e+00 -3.2228322147070228e-02 -5.9269524604852564e-01 +5.8806882779420871e-03
9.7999999999999812e+00 +8.1622804258546644e+00 +0.0000000000000000e+00 +9.7999994968631103e+00 -3.2228328590996884e-02 -5.9269585777831824e-01 +5.8808223897136788e-03
9.8999999999999808e+00 +8.1622246406956940e+00 +0.0000000000000000e+00 +9.8999994813030554e+00 -3.2228327117134747e-02 -5.9269647487684352e-01 +5.8809579020676498e-03
9.9999999999999805e+00 +8.1621682891716869e+00 +0.0000000000000000e+00 +9.9999994654254500e+00 -3.2228316750556742e-02 -5.9269709691857153e-01 +5.8810950730003248e-03
1.0099999999999980e+01 +8.1621113712820517e+00 +0.0000000000000000e+00 +1.0099999449227084e+01 -3.2228296767288112e-02 -5.9269772353332106e-01 +5.8812340847005252e-03
1.0199999999999980e+01 +8.1620538870261914e+00 +0.0000000000000000e+00 +1.0199999432704750e+01 -3.2228267446716335e-02 -5.9269835457272257e-01 +5.8813748160876774e-03
1.0299999999999979e+01 +8.1619958364035039e+00 +0.0000000000000000e+00 +1.0299999415855241e+01 -3.2228229318935320e-02 -5.9269898994390968e-01 +5.8815170702546668e-03
1.0399999999999979e+01 +8.1619372194133852e+00 +0.0000000000000000e+00 +1.0399999398675348e+01 -3.2228182913881902e-02 -5.9269962955406486e-01 +5.8816606502855810e-03
1.0499999999999979e+01 +8.1618780360552243e+00 +0.0000000000000000e+00 +1.0499999381161864e+01 -3.2228128761331527e-02 -5.9270027331042296e-01 +5.8818053592554730e-03
1.0599999999999978e+01 +8.1618182863284101e+00 +0.0000000000000000e+00 +1.0599999363311579e+01 -3.2228067390893837e-02 -5.9270092112027117e-01 +5.8819510002301196e-03
1.0699999999999978e+01 +8.1617579702323244e+00 +0.0000000000000000e+00 +1.0699999345121286e+01 -3.2227999332008310e-02 -5.9270157289095127e-01 +5.8820973762657800e-03
1.0799999999999978e+01 +8.1616970877663455e+00 +0.0000000000000000e+00 +1.0799999326587777e+01 -3.2227925113939904e-02 -5.9270222852986110e-01 +5.8822442904089599e-03
1.0899999999999977e+01 +8.1616356389298499e+00 +0.0000000000000000e+00 +1.0899999307707844e+01 -3.2227845265774616e-02 -5.9270288794445702e-01 +5.8823915456961695e-03
1.0999999999999977e+01 +8.1615736237222087e+00 +0.0000000000000000e+00 +1.0999999288478278e+01 -3.2227760316415208e-02 -5.9270355104225414e-01 +5.8825389451536824e-03
1.1099999999999977e+01 +8.1615110421427914e+00 +0.0000000000000000e+00 +1.1099999268895873e+01 -3.2227670794576765e-02 -5.9270421773082993e-01 +5.8826862917973023e-03
1.1199999999999976e+01 +8.1614478941909621e+00 +0.0000000000000000e+00 +1.1199999248957418e+01 -3.2227577228782348e-02 -5.9270488791782394e-01 +5.8828333886321192e-03
1.1299999999999976e+01 +8.1613841798660811e+00 +0.0000000000000000e+00 +1.1299999228659706e+01 -3.2227480147358621e-02 -5.9270556151094100e-01 +5.8829800386522666e-03
1.1399999999999975e+01 +8.1613198991675091e+00 +0.0000000000000000e+00 +1.1399999207999530e+01 -3.2227380078431435e-02 -5.9270623841795167e-01 +5.8831260448406891e-03
1.1499999999999975e+01 +8.1612550520946012e+00 +0.0000000000000000e+00 +1.1499999186973680e+01 -3.2227277549921572e-02 -5.9270691854669533e-01 +5.8832712101688925e-03
1.1599999999999975e+01 +8.1611896386467073e+00 +0.0000000000000000e+00 +1.1599999165578948e+01 -3.2227173089540220e-02 -5.9270760180508042e-01 +5.8834153375967096e-03
1.1699999999999974e+01 +8.1611236588231790e+00 +0.0000000000000000e+00 +1.1699999143812127e+01 -3.2227067224784717e-02 -5.9270828810108700e-01 +5.8835582300720652e-03
1.1799999999999974e+01 +8.1610571126233609e+00 +0.0000000000000000e+00 +1.1799999121670007e+01 -3.2226960482934129e-02 -5.9270897734276862e-01 +5.8836996905307247e-03
