# multipoles
# s[mm] polynom_b[n=0][T/m^n] polynom_b[n=1][T/m^n] polynom_b[n=2][T/m^n] polynom_b[n=3][T/m^n] polynom_b[n=4][T/m^n] polynom_b[n=5][T/m^n] polynom_b[n=6][T/m^n] 
+0.0000000000000000e+00 -5.9270719075238432e-01 +8.1136637282827699e+00 -5.1718795444811283e-01 -2.5388775098785882e+01 +5.9037796006731824e+03 -5.0672767142947152e+04 -3.6067536577363044e+07 
-1.0000000000000001e-01 -5.9270745325745078e-01 +8.1136422685243907e+00 -5.0940216583705511e-01 -2.4833762767645243e+01 +5.8006037149683052e+03 -5.3656349434855176e+04 -3.5693585683844775e+07 
-2.0000000000000001e-01 -5.9270772164629593e-01 +8.1136163264724335e+00 -5.0128878140359845e-01 -2.4193209646184773e+01 +5.6963285117213891e+03 -5.7107844489697272e+04 -3.5328820087677911e+07 
-3.0000000000000004e-01 -5.9270799550323994e-01 +8.1135862740798022e+00 -4.9288947907653202e-01 -2.3474886895600644e+01 +5.5911744522392974e+03 -6.0982583306585628e+04 -3.4972718604899786e+07 
-4.0000000000000002e-01 -5.9270827441257579e-01 +8.1135524832954289e+00 -4.8424594060113085e-01 -2.2686565595186352e+01 +5.4853620720488962e+03 -6.5235897196856742e+04 -3.4624760405534066e+07 
-5.0000000000000000e-01 -5.9270855795856714e-01 +8.1135153260640198e+00 -4.7539985014760838e-01 -2.1836016710184118e+01 +5.3791119471563179e+03 -6.9823118075592371e+04 -3.4284424836622097e+07 
-5.9999999999999998e-01 -5.9270884572551186e-01 +8.1134751743353331e+00 -4.6639288738983764e-01 -2.0931011363307935e+01 +5.2726445671401079e+03 -7.4699576877776475e+04 -3.3951190830180891e+07 
-6.9999999999999996e-01 -5.9270913729763253e-01 +8.1134324000518223e+00 -4.5726674116413329e-01 -1.9979320481709120e+01 +5.1661805949867103e+03 -7.9820605607716425e+04 -3.3624538141733103e+07 
-7.9999999999999993e-01 -5.9270943225921302e-01 +8.1133873751571581e+00 -4.4806309202714728e-01 -1.8988715010165500e+01 +5.0599405330394320e+03 -8.5141536208293561e+04 -3.3303945753984120e+07 
-8.9999999999999991e-01 -5.9270973019449480e-01 +8.1133404715986259e+00 -4.3882362576469564e-01 -1.7966966011935899e+01 +4.9541449814968264e+03 -9.0617699902771419e+04 -3.2988893111581814e+07 
-9.9999999999999989e-01 -5.9271003068775907e-01 +8.1132920613254811e+00 -4.2959002303778754e-01 -1.6921844583997519e+01 +4.8490144445657152e+03 -9.6204427805642772e+04 -3.2678859210218847e+07 
-1.0999999999999999e+00 -5.9271033332324197e-01 +8.1132425162857142e+00 -4.2040397029881349e-01 -1.5861121777227114e+01 +4.7447695338649382e+03 -1.0185705134933203e+05 -3.2373323549081858e+07 
-1.2000000000000000e+00 -5.9271063768521504e-01 +8.1131922084323431e+00 -4.1130714906358723e-01 -1.4792568760444080e+01 +4.6416307660867014e+03 -1.0753090140723092e+05 -3.2071765177862547e+07 
-1.3000000000000000e+00 -5.9271094335797136e-01 +8.1131415097233770e+00 -4.0234123873119532e-01 -1.3723956828327870e+01 +4.5398186190544002e+03 -1.1318130822710667e+05 -3.1773662967858706e+07 
-1.4000000000000001e+00 -5.9271124992579816e-01 +8.1130907921195856e+00 -3.9354791932914701e-01 -1.2663057317819266e+01 +4.4395535801561327e+03 -1.1876360198933186e+05 -3.1478495833297301e+07 
-1.5000000000000002e+00 -5.9271155697302957e-01 +8.1130404275893753e+00 -3.8496886530083541e-01 -1.1617641757963248e+01 +4.3410560332442119e+03 -1.2423311191970092e+05 -3.1185742208935376e+07 
-1.6000000000000003e+00 -5.9271186408397236e-01 +8.1129907881054883e+00 -3.7664575493183133e-01 -1.0595481758988443e+01 +4.2445464350113607e+03 -1.2954516698593857e+05 -3.0894880881012592e+07 
-1.7000000000000004e+00 -5.9271217084299421e-01 +8.1129422456483447e+00 -3.6862025880934390e-01 -9.6043490948397157e+00 +4.1502450917460728e+03 -1.3465509548630801e+05 -3.0605389913140252e+07 
-1.8000000000000005e+00 -5.9271247683448736e-01 +8.1128951722077236e+00 -3.6093404564112608e-01 -8.6520157767133323e+00 +4.0583722825774698e+03 -1.3951822454610313e+05 -3.0316747272878364e+07 
-1.9000000000000006e+00 -5.9271278164285157e-01 +8.1128499397777958e+00 -3.5362878320852170e-01 -7.7462538645641663e+00 +3.9691482641002358e+03 -1.4408988136335419e+05 -3.0028430811997142e+07 
-2.0000000000000004e+00 -5.9271308485254903e-01 +8.1128069203658342e+00 -3.4674613222744172e-01 -6.8948357520319048e+00 +3.8827931624312919e+03 -1.4832539147001167e+05 -2.9739917781663585e+07 
-2.1000000000000005e+00 -5.9271338603946822e-01 +8.1127664157056696e+00 -3.4032466378176551e-01 -6.1040400297681581e+00 +3.7995809962020544e+03 -1.5218878365193578e+05 -2.9451265110274717e+07 
-2.2000000000000006e+00 -5.9271368473926178e-01 +8.1127284483567230e+00 -3.3439048075447442e-01 -5.3743377330611724e+00 +3.7199984229820843e+03 -1.5567775719678734e+05 -2.9164816716732539e+07 
-2.3000000000000007e+00 -5.9271398047601431e-01 +8.1126929715534200e+00 -3.2896654638826439e-01 -4.7047895363357810e+00 +3.6445847232382230e+03 -1.5879814794203767e+05 -2.8883481543681916e+07 
-2.4000000000000008e+00 -5.9271427277380784e-01 +8.1126599385424711e+00 -3.2407582390746764e-01 -4.0944564496059126e+00 +3.5738791764353246e+03 -1.6155578984359041e+05 -2.8610168533437841e+07 
-2.5000000000000009e+00 -5.9271456115675270e-01 +8.1126293025724046e+00 -3.1974127349488091e-01 -3.5423995371581185e+00 +3.5084210075282044e+03 -1.6395651654225803e+05 -2.8347786380802948e+07 
-2.6000000000000010e+00 -5.9271484514895023e-01 +8.1126010168942795e+00 -3.1598585635390192e-01 -3.0476799068971592e+00 +3.4487494588910931e+03 -1.6600616150734937e+05 -2.8099243862323407e+07 
-2.7000000000000011e+00 -5.9271512427453088e-01 +8.1125750347675449e+00 -3.1283252983731408e-01 -2.6093589054795912e+00 +3.3954036994833036e+03 -1.6771055682428624e+05 -2.7867449408376165e+07 
-2.8000000000000012e+00 -5.9271539805761364e-01 +8.1125513094540356e+00 -3.1030425363487896e-01 -2.2264979498347328e+00 +3.3489229481807447e+03 -1.6907553415463737e+05 -2.7655311706021365e+07 
-2.9000000000000012e+00 -5.9271566602232206e-01 +8.1125297942197285e+00 -3.0842398592550679e-01 -1.8981585499295455e+00 +3.3098463897441738e+03 -1.7010692467899586e+05 -2.7465739268826772e+07 
-3.0000000000000013e+00 -5.9271592769282566e-01 +8.1125104423373564e+00 -3.0721467985298145e-01 -1.6234024188701381e+00 +3.2787131190799491e+03 -1.7081055834399787e+05 -2.7301640203725290e+07 
-3.1000000000000014e+00 -5.9271618259325187e-01 +8.1124932070821885e+00 -3.0669929336102403e-01 -1.4012913303816439e+00 +3.2560623184324963e+03 -1.7119226475538290e+05 -2.7165923025170553e+07 
-3.2000000000000015e+00 -5.9271643024775023e-01 +8.1124780417318636e+00 -3.0690078233684659e-01 -1.2308871355661697e+00 +3.2424331371838894e+03 -1.7125787300477832e+05 -2.7061496112899467e+07 
-3.3000000000000016e+00 -5.9271667018049168e-01 +8.1124648995777946e+00 -3.0784209938846591e-01 -1.1112520744433931e+00 +3.2383646594766651e+03 -1.7101320991237008e+05 -2.6991267532437269e+07 
-3.4000000000000017e+00 -5.9271690191564297e-01 +8.1124537339052338e+00 -3.0954619787084298e-01 -1.0414482051341445e+00 +3.2443959851163622e+03 -1.7046410331493089e+05 -2.6958145430566940e+07 
-3.5000000000000018e+00 -5.9271712497734941e-01 +8.1124444980084718e+00 -3.1203603374498384e-01 -1.0205378618337899e+00 +3.2610662643889668e+03 -1.6961637935142746e+05 -2.6965038201776575e+07 
-3.6000000000000019e+00 -5.9271733888981648e-01 +8.1124371451883270e+00 -3.1533455583075154e-01 -1.0475835590878619e+00 +3.2889145156894679e+03 -1.6847586307630452e+05 -2.7014853626292840e+07 
-3.7000000000000020e+00 -5.9271754317719383e-01 +8.1124316287465703e+00 -3.1946471923632891e-01 -1.1216478515522255e+00 +3.3284798735648533e+03 -1.6704837920840210e+05 -2.7110500032998540e+07 
-3.8000000000000020e+00 -5.9271773736368694e-01 +8.1124279019919978e+00 -3.2444947273793062e-01 -1.2417934994028235e+00 +3.3803013574478691e+03 -1.6533975119908413e+05 -2.7254885219249755e+07 
-3.9000000000000021e+00 -5.9271792097345966e-01 +8.1124259182355996e+00 -3.3031177030452724e-01 -1.4070833388089683e+00 +3.4449180875382217e+03 -1.6335580194209010e+05 -2.7450917472490698e+07 
-4.0000000000000018e+00 -5.9271809353069915e-01 +8.1124256307968068e+00 -3.3707456213170373e-01 -1.6165804609179204e+00 +3.5228691064807658e+03 -1.6110235274391368e+05 -2.7701504699492875e+07 
-4.1000000000000014e+00 -5.9271825497466701e-01 +8.1124269879439002e+00 -3.4473854680875354e-01 -1.8689171427664069e+00 +3.6143411403063856e+03 -1.5858892865859767e+05 -2.8008056736857735e+07 
-4.2000000000000011e+00 -5.9271840689870370e-01 +8.1124299182253932e+00 -3.5321615748114543e-01 -2.1609490104049294e+00 +3.7181174576623248e+03 -1.5584006191946013e+05 -2.8365977293603472e+07 
-4.3000000000000007e+00 -5.9271855130823459e-01 +8.1124343453494898e+00 -3.6239793325559883e-01 -2.4890721173743313e+00 +3.8326315705769571e+03 -1.5288410220537474e+05 -2.8769163539521903e+07 
-4.4000000000000004e+00 -5.9271869020864187e-01 +8.1124401930123611e+00 -3.7217441955192282e-01 -2.8496822136869477e+00 +3.9563171212320426e+03 -1.4974940074024315e+05 -2.9211513278321546e+07 
-4.5000000000000000e+00 -5.9271882560530753e-01 +8.1124473848931551e+00 -3.8243616323414625e-01 -3.2391746058389836e+00 +4.0876077906599726e+03 -1.4646431109493950e+05 -2.9686924511984788e+07 
-4.5999999999999996e+00 -5.9271895950358644e-01 +8.1124558446573296e+00 -3.9307371532212260e-01 -3.6539442354991221e+00 +4.2249373481514504e+03 -1.4305718877011628e+05 -3.0189295672538769e+07 
-4.6999999999999993e+00 -5.9271909390883160e-01 +8.1124654959495963e+00 -4.0397762862850189e-01 -4.0903855073396223e+00 +4.3667396107398536e+03 -1.3955639210924355e+05 -3.0712525437230811e+07 
-4.7999999999999989e+00 -5.9271923082634981e-01 +8.1124762624011968e+00 -4.1503846297567876e-01 -4.5448924737679208e+00 +4.5114485410985362e+03 -1.3599028128283928e+05 -3.1250513192563064e+07 
-4.8999999999999986e+00 -5.9271937226146043e-01 +8.1124880676220865e+00 -4.2614677807733281e-01 -5.0138586348780576e+00 +4.6574981129282551e+03 -1.3238721938554817e+05 -3.1797158392021760e+07 
-4.9999999999999982e+00 -5.9271952021942642e-01 +8.1125008352026828e+00 -4.3719314214711091e-01 -5.4936769785814210e+00 +4.8033224753845798e+03 -1.2877557221535579e+05 -3.2346361341722116e+07 
-5.0999999999999979e+00 -5.9271967670550796e-01 +8.1125144887123497e+00 -4.4806812513898003e-01 -5.9807399449199838e+00 +4.9473558251677696e+03 -1.2518370846051694e+05 -3.2892022591485932e+07 
-5.1999999999999975e+00 -5.9271984372494391e-01 +8.1125289516963974e+00 -4.5866230140965170e-01 -6.4714393382911855e+00 +5.0880324565842675e+03 -1.2164000020314999e+05 -3.3428043169288497e+07 
-5.2999999999999972e+00 -5.9272002328293150e-01 +8.1125441476827671e+00 -4.6886625191396764e-01 -6.9621665286132055e+00 +5.2237868052967951e+03 -1.1817282173063014e+05 -3.3948324796737537e+07 
-5.3999999999999968e+00 -5.9272021738464531e-01 +8.1125600001664449e+00 -4.7857056231497896e-01 -7.4493119994808898e+00 +5.3530534113970180e+03 -1.1481055214445209e+05 -3.4446769706109472e+07 
-5.4999999999999964e+00 -5.9272042803523695e-01 +8.1125764326273693e+00 -4.8766582297639338e-01 -7.9292658715352369e+00 +5.4742669239155293e+03 -1.1158157231991182e+05 -3.4917280677097775e+07 
-5.5999999999999961e+00 -5.9272065723982592e-01 +8.1125933685119787e+00 -4.9604262956622192e-01 -8.3984173683809367e+00 +5.5858621039147802e+03 -1.0851426798548961e+05 -3.5353761024521708e+07 
-5.6999999999999957e+00 -5.9272090700349411e-01 +8.1126107312408315e+00 -5.0359158492737210e-01 -8.8531550481395485e+00 +5.6862738720303796e+03 -1.0563702835140118e+05 -3.5750114858201019e+07 
-5.7999999999999954e+00 -5.9272117933129975e-01 +8.1126284442118859e+00 -5.1020329669459363e-01 -9.2898668820577051e+00 +5.7739372567838163e+03 -1.0297824569659912e+05 -3.6100246816937268e+07 
-5.8999999999999950e+00 -5.9272147622826543e-01 +8.1126464307833839e+00 -5.1576837853915236e-01 -9.7049397927461509e+00 +5.8472874170272707e+03 -1.0056631794194964e+05 -3.6398062172651120e+07 
-5.9999999999999947e+00 -5.9272179969938177e-01 +8.1126646142934877e+00 -5.2017745032497520e-01 -1.0094760212372158e+01 +5.9047596497281093e+03 -9.8429645344008211e+04 -3.6637466868692800e+07 
-6.0999999999999943e+00 -5.9272215112373616e-01 +8.1126829180482130e+00 -5.2335537015877387e-01 -1.0456497334007960e+01 +5.9452774525683581e+03 -9.6588294912758036e+04 -3.6814180634335987e+07 
-6.1999999999999940e+00 -5.9272252940476344e-01 +8.1127012594451351e+00 -5.2535994734317137e-01 -1.0790263889622990e+01 +5.9696676045526383e+03 -9.5031026363554149e+04 -3.6931109187813401e+07 
-6.2999999999999936e+00 -5.9272293283357036e-01 +8.1127195529582856e+00 -5.2628127082221199e-01 -1.1096868040852504e+01 +5.9792210248671236e+03 -9.3739202881817037e+04 -3.6992938366389491e+07 
-6.3999999999999932e+00 -5.9272335970123824e-01 +8.1127377130840070e+00 -5.2620942925366010e-01 -1.1377118594710197e+01 +5.9752285936456301e+03 -9.2694184171952817e+04 -3.7004353751428112e+07 
-6.4999999999999929e+00 -5.9272380829887628e-01 +8.1127556543319628e+00 -5.2523450622244883e-01 -1.1631824725972390e+01 +5.9589810745917257e+03 -9.1877328136440119e+04 -3.6970040337020978e+07 
-6.5999999999999925e+00 -5.9272427691760310e-01 +8.1127732912339887e+00 -5.2344657990689192e-01 -1.1861796243768762e+01 +5.9317690905141981e+03 -9.1269989301794601e+04 -3.6894682368147425e+07 
-6.6999999999999922e+00 -5.9272476384853379e-01 +8.1127905383425194e+00 -5.2093572688702428e-01 -1.2067843548384385e+01 +5.8948832089285070e+03 -9.0853519083925261e+04 -3.6782963782485545e+07 
-6.7999999999999918e+00 -5.9272526738280962e-01 +8.1128073102246123e+00 -5.1779201658909502e-01 -1.2250777426793910e+01 +5.8496138227588899e+03 -9.0609267066691900e+04 -3.6639567606919043e+07 
-6.8999999999999915e+00 -5.9272578581155211e-01 +8.1128235214747715e+00 -5.1410551802360804e-01 -1.2411409469608499e+01 +5.7972512872021434e+03 -9.0518578472418827e+04 -3.6469176635175556e+07 
-6.9999999999999911e+00 -5.9272631742593529e-01 +8.1128390867064013e+00 -5.0996628989499826e-01 -1.2550551789022242e+01 +5.7390857242976108e+03 -9.0562795907642212e+04 -3.6276472477989912e+07 
-7.0999999999999908e+00 -5.9272686051711254e-01 +8.1128539205580221e+00 -5.0546439003236288e-01 -1.2669017203371356e+01 +5.6764072026229305e+03 -9.0723258290120662e+04 -3.6066136419437207e+07 
-7.1999999999999904e+00 -5.9272741337625279e-01 +8.1128679376921635e+00 -5.0068987037146151e-01 -1.2767619205938555e+01 +5.6105056405693904e+03 -9.0981301040817183e+04 -3.5842848957313158e+07 
-7.2999999999999901e+00 -5.9272797429455493e-01 +8.1128810527958564e+00 -4.9573277569603091e-01 -1.2847171981804738e+01 +5.5426707829378220e+03 -9.1318255988508216e+04 -3.5611289689852707e+07 
-7.3999999999999897e+00 -5.9272854156319332e-01 +8.1128931805821445e+00 -4.9068314923151019e-01 -1.2908490449114188e+01 +5.4741922999861090e+03 -9.1715451155884439e+04 -3.5376137772037230e+07 
-7.4999999999999893e+00 -5.9272911347340196e-01 +8.1129042357922394e+00 -4.8563102306055367e-01 -1.2952390309514049e+01 +5.4063596124178403e+03 -9.2154210504272167e+04 -3.5142071102387115e+07 
-7.5999999999999890e+00 -5.9272968831639516e-01 +8.1129141331983394e+00 -4.8066642716655578e-01 -1.2979688151318756e+01 +5.3404620542663497e+03 -9.2615853295322304e+04 -3.4913767073662385e+07 
-7.6999999999999886e+00 -5.9273026438341736e-01 +8.1129227875932610e+00 -4.7587938381756778e-01 -1.2991201124048203e+01 +5.2777887718220136e+03 -9.3081696055188455e+04 -3.4695902109393820e+07 
-7.7999999999999883e+00 -5.9273083996571974e-01 +8.1129301138083818e+00 -4.7135990925093074e-01 -1.2987747469797375e+01 +5.2196287463873896e+03 -9.3533049479827576e+04 -3.4493151748504616e+07 
-7.8999999999999879e+00 -5.9273141335456792e-01 +8.1129360267021671e+00 -4.6719801364740271e-01 -1.2970146183823317e+01 +5.1672707994216025e+03 -9.3951220425585430e+04 -3.4310190685323022e+07 
-7.9999999999999876e+00 -5.9273198284123751e-01 +8.1129404411638628e+00 -4.6348370116183690e-01 -1.2939217094665866e+01 +5.1220035913776610e+03 -9.4317511814365862e+04 -3.4151692787906565e+07 
-8.0999999999999872e+00 -5.9273254704557987e-01 +8.1129433233600743e+00 -4.6028556086880085e-01 -1.2896484018063173e+01 +5.0847835585593830e+03 -9.4613388921715727e+04 -3.4021141073710531e+07 
-8.1999999999999869e+00 -5.9273310587946837e-01 +8.1129448456488813e+00 -4.5759249162924753e-01 -1.2846401117108849e+01 +5.0553417878408964e+03 -9.4818586995702397e+04 -3.3917582771320336e+07 
-8.2999999999999865e+00 -5.9273365957284452e-01 +8.1129452324373759e+00 -4.5537487682411842e-01 -1.2794182170408222e+01 +5.0331274540806407e+03 -9.4911888342702179e+04 -3.3839036418651879e+07 
-8.3999999999999861e+00 -5.9273420835566326e-01 +8.1129447081278787e+00 -4.5360309992554360e-01 -1.2745040727857976e+01 +5.0175897635088004e+03 -9.4872076483438184e+04 -3.3783520790885970e+07 
-8.4999999999999858e+00 -5.9273475245792373e-01 +8.1129434971135517e+00 -4.5224754065720602e-01 -1.2704189987670947e+01 +5.0081778836975873e+03 -9.4677936851142978e+04 -3.3749054575461552e+07 
-8.5999999999999854e+00 -5.9273529210968534e-01 +8.1129418237831690e+00 -4.5127857280290257e-01 -1.2676842927030984e+01 +5.0043408987033990e+03 -9.4308256055791033e+04 -3.3733656147492655e+07 
-8.6999999999999851e+00 -5.9273582754102194e-01 +8.1129399125099493e+00 -4.5066657067624910e-01 -1.2668211978109920e+01 +5.0055279401349126e+03 -9.3741823746076494e+04 -3.3735344217913747e+07 
-8.7999999999999847e+00 -5.9273635898207855e-01 +8.1129379876631571e+00 -4.5038190128754602e-01 -1.2683509376891227e+01 +5.0111880334342213e+03 -9.2957430532049941e+04 -3.3752137087301150e+07 
-8.8999999999999844e+00 -5.9273688666303714e-01 +8.1129362736020934e+00 -4.5039492925740426e-01 -1.2727946947149773e+01 +5.0207701943759575e+03 -9.1933869354989773e+04 -3.3782053114098519e+07 
-8.9999999999999840e+00 -5.9273741081412945e-01 +8.1129349946751681e+00 -4.5067601507369448e-01 -1.2806736112107309e+01 +5.0337233975402423e+03 -9.0649935283180748e+04 -3.3823110569031291e+07 
-9.0999999999999837e+00 -5.9273793166563149e-01 +8.1129343752206609e+00 -4.5119551568397281e-01 -1.2925087899896809e+01 +5.0494965878096154e+03 -8.9084425532248308e+04 -3.3873327690540448e+07 
-9.1999999999999833e+00 -5.9273844944788179e-01 +8.1129346395681310e+00 -4.5192378282893780e-01 -1.3088212961471227e+01 +5.0675386520641614e+03 -8.7216139397252278e+04 -3.3930722559097260e+07 
-9.2999999999999829e+00 -5.9273896439125295e-01 +8.1129360120342966e+00 -4.5283116614490798e-01 -1.3301321488184273e+01 +5.0872984761029074e+03 -8.5023878616777773e+04 -3.3993313362513185e+07 
-9.3999999999999826e+00 -5.9273947672619109e-01 +8.1129387169245639e+00 -4.5388800835706189e-01 -1.3569623209913841e+01 +5.1082248565838172e+03 -8.2486447512509330e+04 -3.4059117986695908e+07 
-9.4999999999999822e+00 -5.9273998668316719e-01 +8.1129429785359157e+00 -4.5506465185396638e-01 -1.3898327514778142e+01 +5.1297666254431160e+03 -7.9582652163594612e+04 -3.4126154604098707e+07 
-9.5999999999999819e+00 -5.9274049449274047e-01 +8.1129490211528523e+00 -4.5633143055760206e-01 -1.4292643303142738e+01 +5.1513725002479387e+03 -7.6291301332435614e+04 -3.4192440977627002e+07 
-9.6999999999999815e+00 -5.9274100038550515e-01 +8.1129570690427233e+00 -4.5765867620886225e-01 -1.4757778857287006e+01 +5.1724911985183580e+03 -7.2591207183674705e+04 -3.4255994989470273e+07 
-9.7999999999999812e+00 -5.9274150459213115e-01 +8.1129673464668635e+00 -4.5901671410547934e-01 -1.5298942163525043e+01 +5.1925713633056357e+03 -6.8461183420276298e+04 -3.4314834304509684e+07 
-9.8999999999999808e+00 -5.9274200734332050e-01 +8.1129800776727663e+00 -4.6037586867183045e-01 -1.5921340685087825e+01 +5.2110616700242363e+03 -6.3880046571909406e+04 -3.4366976881480217e+07 
-9.9999999999999805e+00 -5.9274250886985713e-01 +8.1129954868895418e+00 -4.6170645659581877e-01 -1.6630181215289195e+01 +5.2274106963560826e+03 -5.8826616509507818e+04 -3.4410440323375531e+07 
-1.0099999999999980e+01 -5.9274300949135461e-01 +8.1130136971748783e+00 -4.6298524797850643e-01 -1.7427694485868440e+01 +5.2412369002524974e+03 -5.3295213248167543e+04 -3.4443945217276365e+07 
