# field on trajectory
# s[mm] rx[mm] ry[mm] rz[mm] bx[T] by[T] bz[T]
0.0000000000000000e+00 +8.1529999999999987e+00 +0.0000000000000000e+00 +0.0000000000000000e+00 -3.1315889373680010e-02 -5.9311490898450847e-01 +6.0499052893712730e-03
-1.0000000000000001e-01 +8.1529997166644801e+00 +0.0000000000000000e+00 -9.9999999999464809e-02 -3.1316110519278767e-02 -5.9311548421210669e-01 +6.0497375348013286e-03
-2.0000000000000001e-01 +8.1529988666575548e+00 +0.0000000000000000e+00 -1.9999999999571844e-01 -3.1316311799554464e-02 -5.9311607812504596e-01 +6.0495658237124366e-03
-3.0000000000000004e-01 +8.1529974499786562e+00 +0.0000000000000000e+00 -2.9999999998554977e-01 -3.1316494632181169e-02 -5.9311668904840154e-01 +6.0493901317592615e-03
-4.0000000000000002e-01 +8.1529954666271998e+00 +0.0000000000000000e+00 -3.9999999996574753e-01 -3.1316660434838432e-02 -5.9311731530725165e-01 +6.0492104345956435e-03
-5.0000000000000000e-01 +8.1529929166025870e+00 +0.0000000000000000e+00 -4.9999999993310063e-01 -3.1316810625210398e-02 -5.9311795522667743e-01 +6.0490267078744039e-03
-5.9999999999999998e-01 +8.1529897999042085e+00 +0.0000000000000000e+00 -5.9999999988439778e-01 -3.1316946620984956e-02 -5.9311860713176490e-01 +6.0488389272471462e-03
-6.9999999999999996e-01 +8.1529861165314408e+00 +0.0000000000000000e+00 -6.9999999981642780e-01 -3.1317069839852892e-02 -5.9311926934760395e-01 +6.0486470683640261e-03
-7.9999999999999993e-01 +8.1529818664836515e+00 +0.0000000000000000e+00 -7.9999999972597946e-01 -3.1317181699506862e-02 -5.9311994019928915e-01 +6.0484511068735437e-03
-8.9999999999999991e-01 +8.1529770497601994e+00 +0.0000000000000000e+00 -8.9999999960984156e-01 -3.1317283617640725e-02 -5.9312061801191951e-01 +6.0482510184223428e-03
-9.9999999999999989e-01 +8.1529716663604379e+00 +0.0000000000000000e+00 -9.9999999946480278e-01 -3.1317377011948463e-02 -5.9312130111059969e-01 +6.0480467786549873e-03
-1.0999999999999999e+00 +8.1529657162837132e+00 +0.0000000000000000e+00 -1.0999999992876519e+00 -3.1317463300123465e-02 -5.9312198782043846e-01 +6.0478383632137636e-03
-1.2000000000000000e+00 +8.1529591995293718e+00 +0.0000000000000000e+00 -1.1999999990751777e+00 -3.1317543899857511e-02 -5.9312267646655159e-01 +6.0476257477384537e-03
-1.3000000000000000e+00 +8.1529521160967544e+00 +0.0000000000000000e+00 -1.2999999988241688e+00 -3.1317620228840000e-02 -5.9312336537405996e-01 +6.0474089078661397e-03
-1.4000000000000001e+00 +8.1529444659852039e+00 +0.0000000000000000e+00 -1.3999999985314140e+00 -3.1317693704756976e-02 -5.9312405286809056e-01 +6.0471878192309824e-03
-1.5000000000000002e+00 +8.1529362491940631e+00 +0.0000000000000000e+00 -1.4999999981937020e+00 -3.1317765745290362e-02 -5.9312473727377746e-01 +6.0469624574640210e-03
-1.6000000000000003e+00 +8.1529274657226800e+00 +0.0000000000000000e+00 -1.5999999978078214e+00 -3.1317837768116932e-02 -5.9312541691626053e-01 +6.0467327981929388e-03
-1.7000000000000004e+00 +8.1529181155704045e+00 +0.0000000000000000e+00 -1.6999999973705608e+00 -3.1317911190907585e-02 -5.9312609012068707e-01 +6.0464988170418846e-03
-1.8000000000000005e+00 +8.1529081987365934e+00 +0.0000000000000000e+00 -1.7999999968787090e+00 -3.1317987431326348e-02 -5.9312675521221203e-01 +6.0462604896312395e-03
-1.9000000000000006e+00 +8.1528977152206128e+00 +0.0000000000000000e+00 -1.8999999963290548e+00 -3.1318067907029554e-02 -5.9312741051599738e-01 +6.0460177915774103e-03
-2.0000000000000004e+00 +8.1528866650218355e+00 +0.0000000000000000e+00 -1.9999999957183865e+00 -3.1318154035664944e-02 -5.9312805435721305e-01 +6.0457706984926220e-03
-2.1000000000000005e+00 +8.1528750481396486e+00 +0.0000000000000000e+00 -2.0999999950434929e+00 -3.1318246827902949e-02 -5.9312868559964538e-01 +6.0455191810490231e-03
-2.2000000000000006e+00 +8.1528628645734482e+00 +0.0000000000000000e+00 -2.1999999943011628e+00 -3.1318345666534908e-02 -5.9312930526151941e-01 +6.0452631901730036e-03
-2.3000000000000007e+00 +8.1528501143226428e+00 +0.0000000000000000e+00 -2.2999999934881847e+00 -3.1318449527380929e-02 -5.9312991489966604e-01 +6.0450026718550298e-03
-2.4000000000000008e+00 +8.1528367973866516e+00 +0.0000000000000000e+00 -2.3999999926013471e+00 -3.1318557386258383e-02 -5.9313051607091150e-01 +6.0447375720860310e-03
-2.5000000000000009e+00 +8.1528229137648989e+00 +0.0000000000000000e+00 -2.4999999916374387e+00 -3.1318668218982153e-02 -5.9313111033207633e-01 +6.0444678368577233e-03
-2.6000000000000010e+00 +8.1528084634568181e+00 +0.0000000000000000e+00 -2.5999999905932478e+00 -3.1318781001364517e-02 -5.9313169923997466e-01 +6.0441934121629581e-03
-2.7000000000000011e+00 +8.1527934464618461e+00 +0.0000000000000000e+00 -2.6999999894655633e+00 -3.1318894709215374e-02 -5.9313228435141307e-01 +6.0439142439960621e-03
-2.8000000000000012e+00 +8.1527778627794252e+00 +0.0000000000000000e+00 -2.7999999882511739e+00 -3.1319008318342202e-02 -5.9313286722318914e-01 +6.0436302783531733e-03
-2.9000000000000012e+00 +8.1527617124089975e+00 +0.0000000000000000e+00 -2.8999999869468680e+00 -3.1319120804550189e-02 -5.9313344941209123e-01 +6.0433414612325745e-03
-3.0000000000000013e+00 +8.1527449953500088e+00 +0.0000000000000000e+00 -2.9999999855494339e+00 -3.1319231143642233e-02 -5.9313403247489593e-01 +6.0430477386350292e-03
-3.1000000000000014e+00 +8.1527277116019015e+00 +0.0000000000000000e+00 -3.0999999840556605e+00 -3.1319338311419115e-02 -5.9313461796836853e-01 +6.0427490565641328e-03
-3.2000000000000015e+00 +8.1527098611641158e+00 +0.0000000000000000e+00 -3.1999999824623360e+00 -3.1319441283679424e-02 -5.9313520744926185e-01 +6.0424453610266431e-03
-3.3000000000000016e+00 +8.1526914440360905e+00 +0.0000000000000000e+00 -3.2999999807662492e+00 -3.1319539036219785e-02 -5.9313580247431419e-01 +6.0421365980328134e-03
-3.4000000000000017e+00 +8.1526724602172571e+00 +0.0000000000000000e+00 -3.3999999789641886e+00 -3.1319630544834748e-02 -5.9313640460024886e-01 +6.0418227135967300e-03
-3.5000000000000018e+00 +8.1526529097070402e+00 +0.0000000000000000e+00 -3.4999999770529424e+00 -3.1319714785317025e-02 -5.9313701538377306e-01 +6.0415036537366682e-03
-3.6000000000000019e+00 +8.1526327925048587e+00 +0.0000000000000000e+00 -3.5999999750292995e+00 -3.1319790733457469e-02 -5.9313763638157713e-01 +6.0411793644754063e-03
-3.7000000000000020e+00 +8.1526121086101178e+00 +0.0000000000000000e+00 -3.6999999728900481e+00 -3.1319857365045140e-02 -5.9313826915033363e-01 +6.0408497918405853e-03
-3.8000000000000020e+00 +8.1525908580222133e+00 +0.0000000000000000e+00 -3.7999999706319767e+00 -3.1319913655867414e-02 -5.9313891524669571e-01 +6.0405148818650284e-03
-3.9000000000000021e+00 +8.1525690407405307e+00 +0.0000000000000000e+00 -3.8999999682518740e+00 -3.1319958581709960e-02 -5.9313957622729530e-01 +6.0401745805870920e-03
-4.0000000000000018e+00 +8.1525466567644376e+00 +0.0000000000000000e+00 -3.9999999657465284e+00 -3.1319991118356955e-02 -5.9314025364874423e-01 +6.0398288340509998e-03
-4.1000000000000014e+00 +8.1525237060932874e+00 +0.0000000000000000e+00 -4.0999999631127277e+00 -3.1320010704855940e-02 -5.9314094874415924e-01 +6.0394776565633988e-03
-4.2000000000000011e+00 +8.1525001887264157e+00 +0.0000000000000000e+00 -4.1999999603472613e+00 -3.1320018633315752e-02 -5.9314166145274017e-01 +6.0391213354602756e-03
-4.3000000000000007e+00 +8.1524761046631440e+00 +0.0000000000000000e+00 -4.2999999574469170e+00 -3.1320016659113173e-02 -5.9314239139019098e-01 +6.0387602263342792e-03
-4.4000000000000004e+00 +8.1524514539027741e+00 +0.0000000000000000e+00 -4.3999999544084831e+00 -3.1320006537627676e-02 -5.9314313817219200e-01 +6.0383946847776997e-03
-4.5000000000000000e+00 +8.1524262364445956e+00 +0.0000000000000000e+00 -4.4999999512287481e+00 -3.1319990024241691e-02 -5.9314390141439810e-01 +6.0380250663823890e-03
-4.5999999999999996e+00 +8.1524004522878784e+00 +0.0000000000000000e+00 -4.5999999479045002e+00 -3.1319968874340909e-02 -5.9314468073243876e-01 +6.0376517267396942e-03
-4.6999999999999993e+00 +8.1523741014318798e+00 +0.0000000000000000e+00 -4.6999999444325287e+00 -3.1319944843314504e-02 -5.9314547574191590e-01 +6.0372750214403555e-03
-4.7999999999999989e+00 +8.1523471838758397e+00 +0.0000000000000000e+00 -4.7999999408096210e+00 -3.1319919686555571e-02 -5.9314628605840503e-01 +6.0368953060744371e-03
-4.8999999999999986e+00 +8.1523196996189853e+00 +0.0000000000000000e+00 -4.8999999370325655e+00 -3.1319895159461278e-02 -5.9314711129745246e-01 +6.0365129362312305e-03
-4.9999999999999982e+00 +8.1522916486605297e+00 +0.0000000000000000e+00 -4.9999999330981506e+00 -3.1319873017433129e-02 -5.9314795107457308e-01 +6.0361282674991834e-03
-5.0999999999999979e+00 +8.1522630309996718e+00 +0.0000000000000000e+00 -5.0999999290031646e+00 -3.1319855015877425e-02 -5.9314880500525369e-01 +6.0357416554658100e-03
-5.1999999999999975e+00 +8.1522338466355961e+00 +0.0000000000000000e+00 -5.1999999247443949e+00 -3.1319842910205398e-02 -5.9314967270494767e-01 +6.0353534557176097e-03
-5.2999999999999972e+00 +8.1522040955674751e+00 +0.0000000000000000e+00 -5.2999999203186308e+00 -3.1319838455833519e-02 -5.9315055378907655e-01 +6.0349640238399850e-03
-5.3999999999999968e+00 +8.1521737777944665e+00 +0.0000000000000000e+00 -5.3999999157226597e+00 -3.1319843408183848e-02 -5.9315144787302776e-01 +6.0345737154171479e-03
-5.4999999999999964e+00 +8.1521428933157178e+00 +0.0000000000000000e+00 -5.4999999109532709e+00 -3.1319859522684242e-02 -5.9315235457215432e-01 +6.0341828860320515e-03
-5.5999999999999961e+00 +8.1521114421303640e+00 +0.0000000000000000e+00 -5.5999999060072518e+00 -3.1319888554768707e-02 -5.9315327350177327e-01 +6.0337918912662988e-03
-5.6999999999999957e+00 +8.1520794242375292e+00 +0.0000000000000000e+00 -5.6999999008813909e+00 -3.1319932259877684e-02 -5.9315420427716603e-01 +6.0334010867000541e-03
-5.7999999999999954e+00 +8.1520468396363235e+00 +0.0000000000000000e+00 -5.7999998955724754e+00 -3.1319992393458271e-02 -5.9315514651357548e-01 +6.0330108279119665e-03
-5.8999999999999950e+00 +8.1520136883258481e+00 +0.0000000000000000e+00 -5.8999998900772948e+00 -3.1320070710964550e-02 -5.9315609982620598e-01 +6.0326214704790864e-03
-5.9999999999999947e+00 +8.1519799703051934e+00 +0.0000000000000000e+00 -5.9999998843926363e+00 -3.1320168967857900e-02 -5.9315706383022326e-01 +6.0322333699767755e-03
-6.0999999999999943e+00 +8.1519456855734393e+00 +0.0000000000000000e+00 -6.0999998785152885e+00 -3.1320288255699789e-02 -5.9315803790950583e-01 +6.0318467905640131e-03
-6.1999999999999940e+00 +8.1519108341296569e+00 +0.0000000000000000e+00 -6.1999998724420387e+00 -3.1320427010416166e-02 -5.9315902052293557e-01 +6.0314616307375708e-03
-6.2999999999999936e+00 +8.1518754159729099e+00 +0.0000000000000000e+00 -6.2999998661696752e+00 -3.1320583004016758e-02 -5.9316000989818940e-01 +6.0310776975751939e-03
-6.3999999999999932e+00 +8.1518394311022515e+00 +0.0000000000000000e+00 -6.3999998596949865e+00 -3.1320754008505848e-02 -5.9316100426299800e-01 +6.0306947981505305e-03
-6.4999999999999929e+00 +8.1518028795167350e+00 +0.0000000000000000e+00 -6.4999998530147609e+00 -3.1320937795882034e-02 -5.9316200184514711e-01 +6.0303127395329656e-03
-6.5999999999999925e+00 +8.1517657612154082e+00 +0.0000000000000000e+00 -6.5999998461257858e+00 -3.1321132138137989e-02 -5.9316300087248197e-01 +6.0299313287874587e-03
-6.6999999999999922e+00 +8.1517280761973172e+00 +0.0000000000000000e+00 -6.6999998390248487e+00 -3.1321334807260209e-02 -5.9316399957290900e-01 +6.0295503729743821e-03
-6.7999999999999918e+00 +8.1516898244615099e+00 +0.0000000000000000e+00 -6.7999998317087380e+00 -3.1321543575228712e-02 -5.9316499617439766e-01 +6.0291696791493600e-03
-6.8999999999999915e+00 +8.1516510060070360e+00 +0.0000000000000000e+00 -6.8999998241742420e+00 -3.1321756214016908e-02 -5.9316598890498595e-01 +6.0287890543630910e-03
-6.9999999999999911e+00 +8.1516116208329468e+00 +0.0000000000000000e+00 -6.9999998164181481e+00 -3.1321970495591323e-02 -5.9316697599278045e-01 +6.0284083056612158e-03
-7.0999999999999908e+00 +8.1515716689383027e+00 +0.0000000000000000e+00 -7.0999998084372447e+00 -3.1322184191911309e-02 -5.9316795566595970e-01 +6.0280272400841150e-03
-7.1999999999999904e+00 +8.1515311503221675e+00 +0.0000000000000000e+00 -7.1999998002283192e+00 -3.1322395074928809e-02 -5.9316892615277861e-01 +6.0276456646667833e-03
-7.2999999999999901e+00 +8.1514900649836157e+00 +0.0000000000000000e+00 -7.2999997917881601e+00 -3.1322600916588200e-02 -5.9316988568156848e-01 +6.0272633864386508e-03
-7.3999999999999897e+00 +8.1514484129217326e+00 +0.0000000000000000e+00 -7.3999997831135547e+00 -3.1322799488825999e-02 -5.9317083248074176e-01 +6.0268802124234131e-03
-7.4999999999999893e+00 +8.1514061941356157e+00 +0.0000000000000000e+00 -7.4999997742012914e+00 -3.1322988563570568e-02 -5.9317176477879441e-01 +6.0264959496388847e-03
-7.5999999999999890e+00 +8.1513634086243734e+00 +0.0000000000000000e+00 -7.5999997650481577e+00 -3.1323165912741965e-02 -5.9317268080430829e-01 +6.0261104050968210e-03
-7.6999999999999886e+00 +8.1513200563871333e+00 +0.0000000000000000e+00 -7.6999997556509410e+00 -3.1323329308251699e-02 -5.9317357878595400e-01 +6.0257233858027684e-03
-7.7999999999999883e+00 +8.1512761374230394e+00 +0.0000000000000000e+00 -7.7999997460064296e+00 -3.1323476522002437e-02 -5.9317445695249349e-01 +6.0253346987559049e-03
-7.8999999999999879e+00 +8.1512316517312549e+00 +0.0000000000000000e+00 -7.8999997361114112e+00 -3.1323605325887800e-02 -5.9317531353278319e-01 +6.0249441509488601e-03
-7.9999999999999876e+00 +8.1511865993109609e+00 +0.0000000000000000e+00 -7.9999997259626738e+00 -3.1323713491792152e-02 -5.9317614675577679e-01 +6.0245515493675727e-03
-8.0999999999999872e+00 +8.1511409801613652e+00 +0.0000000000000000e+00 -8.0999997155570060e+00 -3.1323799317516096e-02 -5.9317695538652726e-01 +6.0241567639993622e-03
-8.1999999999999869e+00 +8.1510947942816951e+00 +0.0000000000000000e+00 -8.1999997048911943e+00 -3.1323863204580818e-02 -5.9317774033416626e-01 +6.0237599168659452e-03
-8.2999999999999865e+00 +8.1510480416712028e+00 +0.0000000000000000e+00 -8.2999996939620271e+00 -3.1323906080459527e-02 -5.9317850304382291e-01 +6.0233611930089288e-03
-8.3999999999999861e+00 +8.1510007223291598e+00 +0.0000000000000000e+00 -8.3999996827662926e+00 -3.1323928872646227e-02 -5.9317924496060492e-01 +6.0229607774825045e-03
-8.4999999999999858e+00 +8.1509528362548593e+00 +0.0000000000000000e+00 -8.4999996713007775e+00 -3.1323932508656317e-02 -5.9317996752959745e-01 +6.0225588553538848e-03
-8.5999999999999854e+00 +8.1509043834476138e+00 +0.0000000000000000e+00 -8.5999996595622701e+00 -3.1323917916027247e-02 -5.9318067219586179e-01 +6.0221556117037167e-03
-8.6999999999999851e+00 +8.1508553639067500e+00 +0.0000000000000000e+00 -8.6999996475475587e+00 -3.1323886022319246e-02 -5.9318136040443414e-01 +6.0217512316265067e-03
-8.7999999999999847e+00 +8.1508057776316107e+00 +0.0000000000000000e+00 -8.7999996352534300e+00 -3.1323837755115928e-02 -5.9318203360032484e-01 +6.0213459002310494e-03
-8.8999999999999844e+00 +8.1507556246215564e+00 +0.0000000000000000e+00 -8.8999996226766740e+00 -3.1323774042024966e-02 -5.9318269322851735e-01 +6.0209398026408482e-03
-8.9999999999999840e+00 +8.1507049048759566e+00 +0.0000000000000000e+00 -8.9999996098140755e+00 -3.1323695810678814e-02 -5.9318334073396695e-01 +6.0205331239945314e-03
-9.0999999999999837e+00 +8.1506536183941964e+00 +0.0000000000000000e+00 -9.0999995966624248e+00 -3.1323603988735259e-02 -5.9318397756159991e-01 +6.0201260494462863e-03
-9.1999999999999833e+00 +8.1506017651756668e+00 +0.0000000000000000e+00 -9.1999995832185082e+00 -3.1323499503878180e-02 -5.9318460515631188e-01 +6.0197187641662748e-03
-9.2999999999999829e+00 +8.1505493452197708e+00 +0.0000000000000000e+00 -9.2999995694791142e+00 -3.1323383283818174e-02 -5.9318522496296822e-01 +6.0193114533410646e-03
-9.3999999999999826e+00 +8.1504963585259169e+00 +0.0000000000000000e+00 -9.3999995554410312e+00 -3.1323256256293237e-02 -5.9318583842640082e-01 +6.0189043021740378e-03
-9.4999999999999822e+00 +8.1504428050935207e+00 +0.0000000000000000e+00 -9.4999995411010456e+00 -3.1323119349069395e-02 -5.9318644699140921e-01 +6.0184974958858292e-03
-9.5999999999999819e+00 +8.1503886849220031e+00 +0.0000000000000000e+00 -9.5999995264559459e+00 -3.1322973489941376e-02 -5.9318705210275746e-01 +6.0180912197147400e-03
-9.6999999999999815e+00 +8.1503339980107885e+00 +0.0000000000000000e+00 -9.6999995115025204e+00 -3.1322819606733304e-02 -5.9318765520517547e-01 +6.0176856589171639e-03
-9.7999999999999812e+00 +8.1502787443592997e+00 +0.0000000000000000e+00 -9.7999994962375556e+00 -3.1322658627299257e-02 -5.9318825774335504e-01 +6.0172809987680074e-03
-9.8999999999999808e+00 +8.1502229239669646e+00 +0.0000000000000000e+00 -9.8999994806578400e+00 -3.1322491479524144e-02 -5.9318886116195135e-01 +6.0168774245611210e-03
-9.9999999999999805e+00 +8.1501665368332077e+00 +0.0000000000000000e+00 -9.9999994647601600e+00 -3.1322319091324061e-02 -5.9318946690558105e-01 +6.0164751216097070e-03
-1.0099999999999980e+01 +8.1501095829574535e+00 +0.0000000000000000e+00 -1.0099999448541306e+01 -3.1322142460905526e-02 -5.9319007632855147e-01 +6.0160742320481929e-03
-1.0199999999999980e+01 +8.1500520623391193e+00 +0.0000000000000000e+00 -1.0199999431998062e+01 -3.1321962867511557e-02 -5.9319069042406281e-01 +6.0156747252239490e-03
-1.0299999999999979e+01 +8.1499939749776207e+00 +0.0000000000000000e+00 -1.0299999415127219e+01 -3.1321781660584760e-02 -5.9319131009504555e-01 +6.0152765272765583e-03
-1.0399999999999979e+01 +8.1499353208723679e+00 +0.0000000000000000e+00 -1.0399999397925564e+01 -3.1321600189496625e-02 -5.9319193624443411e-01 +6.0148795643349172e-03
-1.0499999999999979e+01 +8.1498761000227642e+00 +0.0000000000000000e+00 -1.0499999380389884e+01 -3.1321419803545608e-02 -5.9319256977516888e-01 +6.0144837625169005e-03
-1.0599999999999978e+01 +8.1498163124282073e+00 +0.0000000000000000e+00 -1.0599999362516966e+01 -3.1321241851955346e-02 -5.9319321159019500e-01 +6.0140890479290429e-03
-1.0699999999999978e+01 +8.1497559580880843e+00 +0.0000000000000000e+00 -1.0699999344303599e+01 -3.1321067683872758e-02 -5.9319386259246321e-01 +6.0136953466661874e-03
-1.0799999999999978e+01 +8.1496950370017753e+00 +0.0000000000000000e+00 -1.0799999325746569e+01 -3.1320898648366208e-02 -5.9319452368492886e-01 +6.0133025848111733e-03
-1.0899999999999977e+01 +8.1496335491686516e+00 +0.0000000000000000e+00 -1.0899999306842666e+01 -3.1320736094423665e-02 -5.9319519577055313e-01 +6.0129106884345045e-03
-1.0999999999999977e+01 +8.1495714945880717e+00 +0.0000000000000000e+00 -1.0999999287588675e+01 -3.1320581370950881e-02 -5.9319587975230281e-01 +6.0125195835940073e-03
-1.1099999999999977e+01 +8.1495088732593857e+00 +0.0000000000000000e+00 -1.1099999267981385e+01 -3.1320435826769452e-02 -5.9319657653315017e-01 +6.0121291963345109e-03
-1.1199999999999976e+01 +8.1494456851819272e+00 +0.0000000000000000e+00 -1.1199999248017583e+01 -3.1320300810615098e-02 -5.9319728701607266e-01 +6.0117394526875145e-03
-1.1299999999999976e+01 +8.1493819303550215e+00 +0.0000000000000000e+00 -1.1299999227694057e+01 -3.1320177671135652e-02 -5.9319801210405332e-01 +6.0113502786708567e-03
-1.1399999999999975e+01 +8.1493176087779773e+00 +0.0000000000000000e+00 -1.1399999207007594e+01 -3.1320067756889343e-02 -5.9319875270008160e-01 +6.0109616002883880e-03
-1.1499999999999975e+01 +8.1492527204500895e+00 +0.0000000000000000e+00 -1.1499999185954984e+01 -3.1319972416342885e-02 -5.9319950970715130e-01 +6.0105733435296335e-03
-1.1599999999999975e+01 +8.1491872653706352e+00 +0.0000000000000000e+00 -1.1599999164533010e+01 -3.1319892997869574e-02 -5.9320028402826352e-01 +6.0101854343694765e-03
-1.1699999999999974e+01 +8.1491212435388789e+00 +0.0000000000000000e+00 -1.1699999142738463e+01 -3.1319830849747557e-02 -5.9320107656642407e-01 +6.0097977987678165e-03
