# field on trajectory
# s[mm] rx[mm] ry[mm] rz[mm] bx[T] by[T] bz[T]
0.0000000000000000e+00 +8.1649999999999991e+00 +0.0000000000000000e+00 +0.0000000000000000e+00 -2.9783173152435952e-02 -5.6502674847182799e-01 +5.7530708050315058e-03
1.0000000000000001e-01 +8.1649997167503923e+00 +0.0000000000000000e+00 +9.9999999999465142e-02 -2.9782972071698464e-02 -5.6502610695951960e-01 +5.7532243482733801e-03
2.0000000000000001e-01 +8.1649988670019997e+00 +0.0000000000000000e+00 +1.9999999999572107e-01 -2.9782768378748155e-02 -5.6502548341421677e-01 +5.7533729247089401e-03
3.0000000000000004e-01 +8.1649974507554450e+00 +0.0000000000000000e+00 +2.9999999998555860e-01 -2.9782562281276653e-02 -5.6502487782486077e-01 +5.7535165701405643e-03
4.0000000000000002e-01 +8.1649954680113357e+00 +0.0000000000000000e+00 +3.9999999996576852e-01 -2.9782353986972397e-02 -5.6502429018041056e-01 +5.7536553203692753e-03
5.0000000000000000e-01 +8.1649929187702615e+00 +0.0000000000000000e+00 +4.9999999993314165e-01 -2.9782143703521828e-02 -5.6502372046984040e-01 +5.7537892111947288e-03
5.9999999999999998e-01 +8.1649898030327925e+00 +0.0000000000000000e+00 +5.9999999988446884e-01 -2.9781931638610402e-02 -5.6502316868213709e-01 +5.7539182784152052e-03
6.9999999999999996e-01 +8.1649861207994832e+00 +0.0000000000000000e+00 +6.9999999981654093e-01 -2.9781717999923671e-02 -5.6502263480629689e-01 +5.7540425578275853e-03
7.9999999999999993e-01 +8.1649818720708698e+00 +0.0000000000000000e+00 +7.9999999972614877e-01 -2.9781502995148409e-02 -5.6502211883132381e-01 +5.7541620852273392e-03
8.9999999999999991e-01 +8.1649770568474676e+00 +0.0000000000000000e+00 +8.9999999961008315e-01 -2.9781286831973671e-02 -5.6502162074622675e-01 +5.7542768964085134e-03
9.9999999999999989e-01 +8.1649716751297774e+00 +0.0000000000000000e+00 +9.9999999946513496e-01 -2.9781069718091857e-02 -5.6502114054001640e-01 +5.7543870271637206e-03
1.0999999999999999e+00 +8.1649657269182807e+00 +0.0000000000000000e+00 +1.0999999992880951e+00 -2.9780851861199848e-02 -5.6502067820170343e-01 +5.7544925132841174e-03
1.2000000000000000e+00 +8.1649592122134411e+00 +0.0000000000000000e+00 +1.1999999990757544e+00 -2.9780633469000072e-02 -5.6502023372029586e-01 +5.7545933905593953e-03
1.3000000000000000e+00 +8.1649521310157045e+00 +0.0000000000000000e+00 +1.2999999988249038e+00 -2.9780414749201550e-02 -5.6501980708479582e-01 +5.7546896947777608e-03
1.4000000000000001e+00 +8.1649444833254989e+00 +0.0000000000000000e+00 +1.3999999985323341e+00 -2.9780195909521027e-02 -5.6501939828419745e-01 +5.7547814617259314e-03
1.5000000000000002e+00 +8.1649362691432348e+00 +0.0000000000000000e+00 +1.4999999981948364e+00 -2.9779977157684018e-02 -5.6501900730748400e-01 +5.7548687271891125e-03
1.6000000000000003e+00 +8.1649274884693046e+00 +0.0000000000000000e+00 +1.5999999978092014e+00 -2.9779758701425962e-02 -5.6501863414362674e-01 +5.7549515269509823e-03
1.7000000000000004e+00 +8.1649181413040814e+00 +0.0000000000000000e+00 +1.6999999973722202e+00 -2.9779540748493202e-02 -5.6501827878157984e-01 +5.7550298967936819e-03
1.8000000000000005e+00 +8.1649082276479223e+00 +0.0000000000000000e+00 +1.7999999968806835e+00 -2.9779323506644178e-02 -5.6501794121027982e-01 +5.7551038724978068e-03
1.9000000000000006e+00 +8.1648977475011666e+00 +0.0000000000000000e+00 +1.8999999963313823e+00 -2.9779107183650431e-02 -5.6501762141864220e-01 +5.7551734898423738e-03
2.0000000000000004e+00 +8.1648867008641357e+00 +0.0000000000000000e+00 +1.9999999957211076e+00 -2.9778891987297700e-02 -5.6501731939555899e-01 +5.7552387846048284e-03
2.1000000000000005e+00 +8.1648750877371317e+00 +0.0000000000000000e+00 +2.0999999950466504e+00 -2.9778678185501787e-02 -5.6501703500885170e-01 +5.7552997789808722e-03
2.2000000000000006e+00 +8.1648629081204405e+00 +0.0000000000000000e+00 +2.1999999943048012e+00 -2.9778466286646627e-02 -5.6501676764213982e-01 +5.7553564408439860e-03
2.3000000000000007e+00 +8.1648501620143303e+00 +0.0000000000000000e+00 +2.2999999934923512e+00 -2.9778256859227664e-02 -5.6501651655798357e-01 +5.7554087244857987e-03
2.4000000000000008e+00 +8.1648368494190535e+00 +0.0000000000000000e+00 +2.3999999926060913e+00 -2.9778050471734010e-02 -5.6501628101893042e-01 +5.7554565841962078e-03
2.5000000000000009e+00 +8.1648229703348481e+00 +0.0000000000000000e+00 +2.4999999916428126e+00 -2.9777847692647148e-02 -5.6501606028751405e-01 +5.7554999742633521e-03
2.6000000000000010e+00 +8.1648085247619342e+00 +0.0000000000000000e+00 +2.5999999905993061e+00 -2.9777649090439388e-02 -5.6501585362625306e-01 +5.7555388489735886e-03
2.7000000000000011e+00 +8.1647935127005198e+00 +0.0000000000000000e+00 +2.6999999894723623e+00 -2.9777455233572600e-02 -5.6501566029765193e-01 +5.7555731626114668e-03
2.8000000000000012e+00 +8.1647779341508002e+00 +0.0000000000000000e+00 +2.7999999882587723e+00 -2.9777266690496743e-02 -5.6501547956419995e-01 +5.7556028694597172e-03
2.9000000000000012e+00 +8.1647617891129567e+00 +0.0000000000000000e+00 +2.8999999869553275e+00 -2.9777084029648425e-02 -5.6501531068836963e-01 +5.7556279237992031e-03
3.0000000000000013e+00 +8.1647450775871580e+00 +0.0000000000000000e+00 +2.9999999855588184e+00 -2.9776907819449635e-02 -5.6501515293261784e-01 +5.7556482799089245e-03
3.1000000000000014e+00 +8.1647277995735639e+00 +0.0000000000000000e+00 +3.0999999840660357e+00 -2.9776738628306210e-02 -5.6501500555938400e-01 +5.7556638920659656e-03
3.2000000000000015e+00 +8.1647099550723219e+00 +0.0000000000000000e+00 +3.1999999824737708e+00 -2.9776577024606486e-02 -5.6501486783109112e-01 +5.7556747145455049e-03
3.3000000000000016e+00 +8.1646915440835723e+00 +0.0000000000000000e+00 +3.2999999807788147e+00 -2.9776423576719904e-02 -5.6501473901014243e-01 +5.7556807016207572e-03
3.4000000000000017e+00 +8.1646725666074449e+00 +0.0000000000000000e+00 +3.3999999789779580e+00 -2.9776278852995594e-02 -5.6501461835892408e-01 +5.7556818075629708e-03
3.5000000000000018e+00 +8.1646530226440603e+00 +0.0000000000000000e+00 +3.4999999770679917e+00 -2.9776143421760985e-02 -5.6501450513980245e-01 +5.7556779866413986e-03
3.6000000000000019e+00 +8.1646329121935324e+00 +0.0000000000000000e+00 +3.5999999750457068e+00 -2.9776017851320401e-02 -5.6501439861512504e-01 +5.7556691931232740e-03
3.7000000000000020e+00 +8.1646122352559694e+00 +0.0000000000000000e+00 +3.6999999729078943e+00 -2.9775902709953620e-02 -5.6501429804721814e-01 +5.7556553812737853e-03
3.8000000000000020e+00 +8.1645909918314725e+00 +0.0000000000000000e+00 +3.7999999706513452e+00 -2.9775798565914554e-02 -5.6501420269838887e-01 +5.7556365053560571e-03
3.9000000000000021e+00 +8.1645691819201396e+00 +0.0000000000000000e+00 +3.8999999682728501e+00 -2.9775705987429787e-02 -5.6501411183092176e-01 +5.7556125196311153e-03
4.0000000000000018e+00 +8.1645468055220611e+00 +0.0000000000000000e+00 +3.9999999657692005e+00 -2.9775625542697165e-02 -5.6501402470708084e-01 +5.7555833783578822e-03
4.1000000000000014e+00 +8.1645238626373242e+00 +0.0000000000000000e+00 +4.0999999631371873e+00 -2.9775557559224879e-02 -5.6501394065706612e-01 +5.7555490456607118e-03
4.2000000000000011e+00 +8.1645003532660159e+00 +0.0000000000000000e+00 +4.1999999603736011e+00 -2.9775501401866283e-02 -5.6501385928291026e-01 +5.7555095251335241e-03
4.3000000000000007e+00 +8.1644762774082178e+00 +0.0000000000000000e+00 +4.2999999574752330e+00 -2.9775456194826844e-02 -5.6501378025462867e-01 +5.7554648302394849e-03
4.4000000000000004e+00 +8.1644516350640099e+00 +0.0000000000000000e+00 +4.3999999544388739e+00 -2.9775421062329496e-02 -5.6501370324226829e-01 +5.7554149744439721e-03
4.5000000000000000e+00 +8.1644264262334687e+00 +0.0000000000000000e+00 +4.4999999512613140e+00 -2.9775395128616152e-02 -5.6501362791591037e-01 +5.7553599712147846e-03
4.5999999999999996e+00 +8.1644006509166722e+00 +0.0000000000000000e+00 +4.5999999479393452e+00 -2.9775377517949165e-02 -5.6501355394567221e-01 +5.7552998340223739e-03
4.6999999999999993e+00 +8.1643743091136951e+00 +0.0000000000000000e+00 +4.6999999444697584e+00 -2.9775367354612791e-02 -5.6501348100171001e-01 +5.7552345763400544e-03
4.7999999999999989e+00 +8.1643474008246120e+00 +0.0000000000000000e+00 +4.7999999408493448e+00 -2.9775363762914658e-02 -5.6501340875422079e-01 +5.7551642116442257e-03
4.8999999999999986e+00 +8.1643199260494956e+00 +0.0000000000000000e+00 +4.8999999370748943e+00 -2.9775365867187289e-02 -5.6501333687344557e-01 +5.7550887534146061e-03
4.9999999999999982e+00 +8.1642918847884189e+00 +0.0000000000000000e+00 +4.9999999331431990e+00 -2.9775372791789590e-02 -5.6501326502967320e-01 +5.7550082151344561e-03
5.0999999999999979e+00 +8.1642632770414565e+00 +0.0000000000000000e+00 +5.0999999290510489e+00 -2.9775383661108223e-02 -5.6501319289323970e-01 +5.7549226102907641e-03
5.1999999999999975e+00 +8.1642341028086793e+00 +0.0000000000000000e+00 +5.1999999247952360e+00 -2.9775397599559238e-02 -5.6501312013453353e-01 +5.7548319523745197e-03
5.2999999999999972e+00 +8.1642043620901621e+00 +0.0000000000000000e+00 +5.2999999203725503e+00 -2.9775413731589422e-02 -5.6501304642399730e-01 +5.7547362548808984e-03
5.3999999999999968e+00 +8.1641740548859794e+00 +0.0000000000000000e+00 +5.3999999157797838e+00 -2.9775431181677831e-02 -5.6501297143212925e-01 +5.7546355313095026e-03
5.4999999999999964e+00 +8.1641431811962075e+00 +0.0000000000000000e+00 +5.4999999110137265e+00 -2.9775449074337310e-02 -5.6501289482948791e-01 +5.7545297951645657e-03
5.5999999999999961e+00 +8.1641117410209247e+00 +0.0000000000000000e+00 +5.5999999060711696e+00 -2.9775466534115905e-02 -5.6501281628669253e-01 +5.7544190599551955e-03
5.6999999999999957e+00 +8.1640797343602109e+00 +0.0000000000000000e+00 +5.6999999009489040e+00 -2.9775482685598369e-02 -5.6501273547442699e-01 +5.7543033391955732e-03
5.7999999999999954e+00 +8.1640471612141479e+00 +0.0000000000000000e+00 +5.7999998956437206e+00 -2.9775496653407656e-02 -5.6501265206344153e-01 +5.7541826464051959e-03
5.8999999999999950e+00 +8.1640140215828207e+00 +0.0000000000000000e+00 +5.8999998901524107e+00 -2.9775507562206403e-02 -5.6501256572455638e-01 +5.7540569951090876e-03
5.9999999999999947e+00 +8.1639803154663166e+00 +0.0000000000000000e+00 +5.9999998844717650e+00 -2.9775514536698390e-02 -5.6501247612866223e-01 +5.7539263988380159e-03
6.0999999999999943e+00 +8.1639460428647261e+00 +0.0000000000000000e+00 +6.0999998785985747e+00 -2.9775516944834008e-02 -5.6501238316206692e-01 +5.7537909214786598e-03
6.1999999999999940e+00 +8.1639112037781434e+00 +0.0000000000000000e+00 +6.1999998725296308e+00 -2.9775515127407632e-02 -5.6501228757248889e-01 +5.7536508283211017e-03
6.2999999999999936e+00 +8.1638757982066661e+00 +0.0000000000000000e+00 +6.2999998662617243e+00 -2.9775509668410145e-02 -5.6501219032296968e-01 +5.7535064350030885e-03
6.3999999999999932e+00 +8.1638398261503937e+00 +0.0000000000000000e+00 +6.3999998597916461e+00 -2.9775501151817783e-02 -5.6501209237652195e-01 +5.7533580571587873e-03
6.4999999999999929e+00 +8.1638032876094240e+00 +0.0000000000000000e+00 +6.4999998531161873e+00 -2.9775490161591076e-02 -5.6501199469612728e-01 +5.7532060104186142e-03
6.5999999999999925e+00 +8.1637661825838563e+00 +0.0000000000000000e+00 +6.5999998462321390e+00 -2.9775477281674075e-02 -5.6501189824473352e-01 +5.7530506104090696e-03
6.6999999999999922e+00 +8.1637285110737885e+00 +0.0000000000000000e+00 +6.6999998391362920e+00 -2.9775463095993365e-02 -5.6501180398525386e-01 +5.7528921727525439e-03
6.7999999999999918e+00 +8.1636902730793164e+00 +0.0000000000000000e+00 +6.7999998318254367e+00 -2.9775448188457173e-02 -5.6501171288056484e-01 +5.7527310130671737e-03
6.8999999999999915e+00 +8.1636514686005306e+00 +0.0000000000000000e+00 +6.8999998242963647e+00 -2.9775433142954517e-02 -5.6501162589350451e-01 +5.7525674469666574e-03
6.9999999999999911e+00 +8.1636120976375217e+00 +0.0000000000000000e+00 +6.9999998165458672e+00 -2.9775418543354269e-02 -5.6501154398687170e-01 +5.7524017900600737e-03
7.0999999999999908e+00 +8.1635721601903732e+00 +0.0000000000000000e+00 +7.0999998085707343e+00 -2.9775404973504203e-02 -5.6501146812342207e-01 +5.7522343579517214e-03
7.1999999999999904e+00 +8.1635316562591616e+00 +0.0000000000000000e+00 +7.1999998003677579e+00 -2.9775393017230194e-02 -5.6501139926586874e-01 +5.7520654662409432e-03
7.2999999999999901e+00 +8.1634905858439559e+00 +0.0000000000000000e+00 +7.2999997919337289e+00 -2.9775383258335224e-02 -5.6501133837687845e-01 +5.7518954305219505e-03
7.3999999999999897e+00 +8.1634489489448203e+00 +0.0000000000000000e+00 +7.3999997832654376e+00 -2.9775376280598537e-02 -5.6501128641907195e-01 +5.7517245663836584e-03
7.4999999999999893e+00 +8.1634067455618080e+00 +0.0000000000000000e+00 +7.4999997743596758e+00 -2.9775372667774691e-02 -5.6501124435502059e-01 +5.7515531894094980e-03
7.5999999999999890e+00 +8.1633639756949616e+00 +0.0000000000000000e+00 +7.5999997652132345e+00 -2.9775373003592651e-02 -5.6501121314724512e-01 +5.7513816151772579e-03
7.6999999999999886e+00 +8.1633206393443132e+00 +0.0000000000000000e+00 +7.6999997558229039e+00 -2.9775377871754955e-02 -5.6501119375821374e-01 +5.7512101592589087e-03
7.7999999999999883e+00 +8.1632767365098857e+00 +0.0000000000000000e+00 +7.7999997461854758e+00 -2.9775387855936693e-02 -5.6501118715034082e-01 +5.7510391372204194e-03
7.8999999999999879e+00 +8.1632322671916846e+00 +0.0000000000000000e+00 +7.8999997362977403e+00 -2.9775403539784723e-02 -5.6501119428598490e-01 +5.7508688646215967e-03
7.9999999999999876e+00 +8.1631872313897063e+00 +0.0000000000000000e+00 +7.9999997261564886e+00 -2.9775425506916635e-02 -5.6501121612744631e-01 +5.7506996570159041e-03
8.0999999999999872e+00 +8.1631416291039276e+00 +0.0000000000000000e+00 +8.0999997157585124e+00 -2.9775454079272286e-02 -5.6501125339138747e-01 +5.7505317563100455e-03
8.1999999999999869e+00 +8.1630954603343149e+00 +0.0000000000000000e+00 +8.1999997051006019e+00 -2.9775488532166550e-02 -5.6501130581210368e-01 +5.7503651098452192e-03
8.2999999999999865e+00 +8.1630487250808166e+00 +0.0000000000000000e+00 +8.2999996941795473e+00 -2.9775527879245502e-02 -5.6501137287830272e-01 +5.7501995913271410e-03
8.3999999999999861e+00 +8.1630014233433670e+00 +0.0000000000000000e+00 +8.3999996829921404e+00 -2.9775571134139211e-02 -5.6501145407869380e-01 +5.7500350744688761e-03
8.4999999999999858e+00 +8.1629535551218861e+00 +0.0000000000000000e+00 +8.4999996715351731e+00 -2.9775617310461459e-02 -5.6501154890198757e-01 +5.7498714329910954e-03
8.5999999999999854e+00 +8.1629051204162799e+00 +0.0000000000000000e+00 +8.5999996598054356e+00 -2.9775665421809223e-02 -5.6501165683689747e-01 +5.7497085406223308e-03
8.6999999999999851e+00 +8.1628561192264435e+00 +0.0000000000000000e+00 +8.6999996477997179e+00 -2.9775714481762389e-02 -5.6501177737213726e-01 +5.7495462710992181e-03
8.7999999999999847e+00 +8.1628065515522561e+00 +0.0000000000000000e+00 +8.7999996355148120e+00 -2.9775763503883276e-02 -5.6501190999642426e-01 +5.7493844981667602e-03
8.8999999999999844e+00 +8.1627564173935863e+00 +0.0000000000000000e+00 +8.8999996229475080e+00 -2.9775811501716307e-02 -5.6501205419847733e-01 +5.7492230955785636e-03
8.9999999999999840e+00 +8.1627057167502919e+00 +0.0000000000000000e+00 +8.9999996100945978e+00 -2.9775857488787520e-02 -5.6501220946701869e-01 +5.7490619370971167e-03
9.0999999999999837e+00 +8.1626544496222184e+00 +0.0000000000000000e+00 +9.0999995969528715e+00 -2.9775900478604300e-02 -5.6501237529077231e-01 +5.7489008964940113e-03
9.1999999999999833e+00 +8.1626026160092007e+00 +0.0000000000000000e+00 +9.1999995835191193e+00 -2.9775939484654866e-02 -5.6501255115846594e-01 +5.7487398475502228e-03
9.2999999999999829e+00 +8.1625502159110663e+00 +0.0000000000000000e+00 +9.2999995697901330e+00 -2.9775973520407971e-02 -5.6501273655882966e-01 +5.7485786640563419e-03
9.3999999999999826e+00 +8.1624972493276289e+00 +0.0000000000000000e+00 +9.3999995557627027e+00 -2.9776001599312436e-02 -5.6501293098059779e-01 +5.7484172198128429e-03
9.4999999999999822e+00 +8.1624437162586965e+00 +0.0000000000000000e+00 +9.4999995414336205e+00 -2.9776022734796827e-02 -5.6501313391250718e-01 +5.7482553886303309e-03
9.5999999999999819e+00 +8.1623896167040666e+00 +0.0000000000000000e+00 +9.5999995267996763e+00 -2.9776035940269011e-02 -5.6501334484329924e-01 +5.7480930443297874e-03
9.6999999999999815e+00 +8.1623349506635297e+00 +0.0000000000000000e+00 +9.6999995118576621e+00 -2.9776040229115779e-02 -5.6501356326171859e-01 +5.7479300607428405e-03
9.7999999999999812e+00 +8.1622797181368689e+00 +0.0000000000000000e+00 +9.7999994966043680e+00 -2.9776034614702487e-02 -5.6501378865651453e-01 +5.7477663117120005e-03
9.8999999999999808e+00 +8.1622239191238606e+00 +0.0000000000000000e+00 +9.8999994810365841e+00 -2.9776018110372632e-02 -5.6501402051644001e-01 +5.7476016710909265e-03
9.9999999999999805e+00 +8.1621675536242737e+00 +0.0000000000000000e+00 +9.9999994651511006e+00 -2.9775989729447484e-02 -5.6501425833025309e-01 +5.7474360127446698e-03
1.0099999999999980e+01 +8.1621106216378703e+00 +0.0000000000000000e+00 +1.0099999448944709e+01 -2.9775948748960966e-02 -5.6501450168511813e-01 +5.7472692226834482e-03
1.0199999999999980e+01 +8.1620531231644105e+00 +0.0000000000000000e+00 +1.0199999432414202e+01 -2.9775895500894368e-02 -5.6501475056182282e-01 +5.7471012354586353e-03
1.0299999999999979e+01 +8.1619950582036456e+00 +0.0000000000000000e+00 +1.0299999415556369e+01 -2.9775830580984142e-02 -5.6501500503957180e-01 +5.7469319977522327e-03
1.0399999999999979e+01 +8.1619364267553216e+00 +0.0000000000000000e+00 +1.0399999398368001e+01 -2.9775754584981648e-02 -5.6501526519758249e-01 +5.7467614562414279e-03
1.0499999999999979e+01 +8.1618772288191792e+00 +0.0000000000000000e+00 +1.0499999380845887e+01 -2.9775668108653747e-02 -5.6501553111508607e-01 +5.7465895575984456e-03
1.0599999999999978e+01 +8.1618174643949555e+00 +0.0000000000000000e+00 +1.0599999362986820e+01 -2.9775571747783239e-02 -5.6501580287132680e-01 +5.7464162484903870e-03
1.0699999999999978e+01 +8.1617571334823786e+00 +0.0000000000000000e+00 +1.0699999344787589e+01 -2.9775466098169490e-02 -5.6501608054556374e-01 +5.7462414755790735e-03
1.0799999999999978e+01 +8.1616962360811733e+00 +0.0000000000000000e+00 +1.0799999326244986e+01 -2.9775351755628839e-02 -5.6501636421706947e-01 +5.7460651855208841e-03
1.0899999999999977e+01 +8.1616347721910554e+00 +0.0000000000000000e+00 +1.0899999307355802e+01 -2.9775229315995171e-02 -5.6501665396513201e-01 +5.7458873249665978e-03
1.0999999999999977e+01 +8.1615727418117370e+00 +0.0000000000000000e+00 +1.0999999288116827e+01 -2.9775099375120410e-02 -5.6501694986905426e-01 +5.7457078405612448e-03
1.1099999999999977e+01 +8.1615101449429250e+00 +0.0000000000000000e+00 +1.1099999268524851e+01 -2.9774962528875053e-02 -5.6501725200815434e-01 +5.7455266789439279e-03
1.1199999999999976e+01 +8.1614469815843158e+00 +0.0000000000000000e+00 +1.1199999248576665e+01 -2.9774819373148659e-02 -5.6501756046176699e-01 +5.7453437867476809e-03
1.1299999999999976e+01 +8.1613832517356037e+00 +0.0000000000000000e+00 +1.1299999228269062e+01 -2.9774670503850350e-02 -5.6501787530924230e-01 +5.7451591105993011e-03
1.1399999999999975e+01 +8.1613189553964745e+00 +0.0000000000000000e+00 +1.1399999207598830e+01 -2.9774516516909367e-02 -5.6501819662994723e-01 +5.7449725971191962e-03
1.1499999999999975e+01 +8.1612540925666099e+00 +0.0000000000000000e+00 +1.1499999186562761e+01 -2.9774358008275544e-02 -5.6501852450326617e-01 +5.7447841929212200e-03
1.1599999999999975e+01 +8.1611886632456816e+00 +0.0000000000000000e+00 +1.1599999165157644e+01 -2.9774195573919832e-02 -5.6501885900859983e-01 +5.7445938446125180e-03
1.1699999999999974e+01 +8.1611226674333555e+00 +0.0000000000000000e+00 +1.1699999143380271e+01 -2.9774029809834797e-02 -5.6501920022536711e-01 +5.7444014987933648e-03
1.1799999999999974e+01 +8.1610561051292940e+00 +0.0000000000000000e+00 +1.1799999121227433e+01 -2.9773861312035153e-02 -5.6501954823300571e-01 +5.7442071020570072e-03
