# trajectory
# s[mm] rx[mm] ry[mm] rz[mm] px[rad] py[rad] pz[rad]
0.0000000000000000e+00 +8.1529999999999987e+00 +0.0000000000000000e+00 +0.0000000000000000e+00 +0.0000000000000000e+00 +0.0000000000000000e+00 +1.0000000000000000e+00
-1.0000000000000001e-01 +8.1529997169778490e+00 +0.0000000000000000e+00 -9.9999999999466002e-02 +5.6604426064204898e-06 +0.0000000000000000e+00 +9.9999999998397970e-01
-2.0000000000000001e-01 +8.1529988679115544e+00 +0.0000000000000000e+00 -1.9999999999572793e-01 +1.1320882882617402e-05 +0.0000000000000000e+00 +9.9999999993591882e-01
-3.0000000000000004e-01 +8.1529974528013565e+00 +0.0000000000000000e+00 -2.9999999998558174e-01 +1.6981320647170727e-05 +0.0000000000000000e+00 +9.9999999985581733e-01
-4.0000000000000002e-01 +8.1529954716475146e+00 +0.0000000000000000e+00 -3.9999999996582336e-01 +2.2641755749698935e-05 +0.0000000000000000e+00 +9.9999999974367537e-01
-5.0000000000000000e-01 +8.1529929244503005e+00 +0.0000000000000000e+00 -4.9999999993324878e-01 +2.8302188070859011e-05 +0.0000000000000000e+00 +9.9999999959949304e-01
-5.9999999999999998e-01 +8.1529898112099968e+00 +0.0000000000000000e+00 -5.9999999988465391e-01 +3.3962617522346508e-05 +0.0000000000000000e+00 +9.9999999942327022e-01
-6.9999999999999996e-01 +8.1529861319268946e+00 +0.0000000000000000e+00 -6.9999999981683481e-01 +3.9623044046895624e-05 +0.0000000000000000e+00 +9.9999999921500715e-01
-7.9999999999999993e-01 +8.1529818866012871e+00 +0.0000000000000000e+00 -7.9999999972658731e-01 +4.5283467618279263e-05 +0.0000000000000000e+00 +9.9999999897470371e-01
-8.9999999999999991e-01 +8.1529770752334692e+00 +0.0000000000000000e+00 -8.9999999961070754e-01 +5.0943888241309155e-05 +0.0000000000000000e+00 +9.9999999870236000e-01
-9.9999999999999989e-01 +8.1529716978237357e+00 +0.0000000000000000e+00 -9.9999999946599138e-01 +5.6604305951835971e-05 +0.0000000000000000e+00 +9.9999999839797615e-01
-1.0999999999999999e+00 +8.1529657543723744e+00 +0.0000000000000000e+00 -1.0999999992892349e+00 +6.2264720816749441e-05 +0.0000000000000000e+00 +9.9999999806155215e-01
-1.2000000000000000e+00 +8.1529592448796642e+00 +0.0000000000000000e+00 -1.1999999990772339e+00 +6.7925132933978520e-05 +0.0000000000000000e+00 +9.9999999769308801e-01
-1.3000000000000000e+00 +8.1529521693458751e+00 +0.0000000000000000e+00 -1.2999999988267845e+00 +7.3585542432491537e-05 +0.0000000000000000e+00 +9.9999999729258382e-01
-1.4000000000000001e+00 +8.1529445277712593e+00 +0.0000000000000000e+00 -1.3999999985346827e+00 +7.9245949472296363e-05 +0.0000000000000000e+00 +9.9999999686003960e-01
-1.5000000000000002e+00 +8.1529363201560550e+00 +0.0000000000000000e+00 -1.4999999981977243e+00 +8.4906354244440642e-05 +0.0000000000000000e+00 +9.9999999639545534e-01
-1.6000000000000003e+00 +8.1529275465004787e+00 +0.0000000000000000e+00 -1.5999999978127057e+00 +9.0566756971011968e-05 +0.0000000000000000e+00 +9.9999999589883115e-01
-1.7000000000000004e+00 +8.1529182068047206e+00 +0.0000000000000000e+00 -1.6999999973764226e+00 +9.6227157905138128e-05 +0.0000000000000000e+00 +9.9999999537016693e-01
-1.8000000000000005e+00 +8.1529083010689476e+00 +0.0000000000000000e+00 -1.7999999968856710e+00 +1.0188755733098735e-04 +0.0000000000000000e+00 +9.9999999480946267e-01
-1.9000000000000006e+00 +8.1528978292932948e+00 +0.0000000000000000e+00 -1.8999999963372471e+00 +1.0754795556376851e-04 +0.0000000000000000e+00 +9.9999999421671848e-01
-2.0000000000000004e+00 +8.1528867914778633e+00 +0.0000000000000000e+00 -1.9999999957279468e+00 +1.1320835294973148e-04 +0.0000000000000000e+00 +9.9999999359193426e-01
-2.1000000000000005e+00 +8.1528751876227208e+00 +0.0000000000000000e+00 -2.0999999950545662e+00 +1.1886874986357729e-04 +0.0000000000000000e+00 +9.9999999293510999e-01
-2.2000000000000006e+00 +8.1528630177278938e+00 +0.0000000000000000e+00 -2.1999999943139010e+00 +1.2452914667996731e-04 +0.0000000000000000e+00 +9.9999999224624569e-01
-2.3000000000000007e+00 +8.1528502817933752e+00 +0.0000000000000000e+00 -2.2999999935027473e+00 +1.3018954374503216e-04 +0.0000000000000000e+00 +9.9999999152534125e-01
-2.4000000000000008e+00 +8.1528369798191260e+00 +0.0000000000000000e+00 -2.3999999926179010e+00 +1.3584994137378145e-04 +0.0000000000000000e+00 +9.9999999077239665e-01
-2.5000000000000009e+00 +8.1528231118050734e+00 +0.0000000000000000e+00 -2.4999999916561584e+00 +1.4151033985010343e-04 +0.0000000000000000e+00 +9.9999998998741180e-01
-2.6000000000000010e+00 +8.1528086777511195e+00 +0.0000000000000000e+00 -2.5999999906143154e+00 +1.4717073942676476e-04 +0.0000000000000000e+00 +9.9999998917038668e-01
-2.7000000000000011e+00 +8.1527936776571437e+00 +0.0000000000000000e+00 -2.6999999894891680e+00 +1.5283114032541009e-04 +0.0000000000000000e+00 +9.9999998832132120e-01
-2.8000000000000012e+00 +8.1527781115230038e+00 +0.0000000000000000e+00 -2.7999999882775120e+00 +1.5849154273656172e-04 +0.0000000000000000e+00 +9.9999998744021534e-01
-2.9000000000000012e+00 +8.1527619793485400e+00 +0.0000000000000000e+00 -2.8999999869761433e+00 +1.6415194681961909e-04 +0.0000000000000000e+00 +9.9999998652706912e-01
-3.0000000000000013e+00 +8.1527452811335799e+00 +0.0000000000000000e+00 -2.9999999855818578e+00 +1.6981235270285835e-04 +0.0000000000000000e+00 +9.9999998558188241e-01
-3.1000000000000014e+00 +8.1527280168779370e+00 +0.0000000000000000e+00 -3.0999999840914518e+00 +1.7547276048343176e-04 +0.0000000000000000e+00 +9.9999998460465511e-01
-3.2000000000000015e+00 +8.1527101865814178e+00 +0.0000000000000000e+00 -3.1999999825017209e+00 +1.8113317022736724e-04 +0.0000000000000000e+00 +9.9999998359538722e-01
-3.3000000000000016e+00 +8.1526917902438250e+00 +0.0000000000000000e+00 -3.2999999808094613e+00 +1.8679358196956757e-04 +0.0000000000000000e+00 +9.9999998255407874e-01
-3.4000000000000017e+00 +8.1526728278649578e+00 +0.0000000000000000e+00 -3.3999999790114686e+00 +1.9245399571380992e-04 +0.0000000000000000e+00 +9.9999998148072966e-01
-3.5000000000000018e+00 +8.1526532994446175e+00 +0.0000000000000000e+00 -3.4999999771045389e+00 +1.9811441143274499e-04 +0.0000000000000000e+00 +9.9999998037533988e-01
-3.6000000000000019e+00 +8.1526332049826085e+00 +0.0000000000000000e+00 -3.5999999750854683e+00 +2.0377482906789636e-04 +0.0000000000000000e+00 +9.9999997923790940e-01
-3.7000000000000020e+00 +8.1526125444787425e+00 +0.0000000000000000e+00 -3.6999999729510527e+00 +2.0943524852965964e-04 +0.0000000000000000e+00 +9.9999997806843821e-01
-3.8000000000000020e+00 +8.1525913179328455e+00 +0.0000000000000000e+00 -3.7999999706980878e+00 +2.1509566969730168e-04 +0.0000000000000000e+00 +9.9999997686692632e-01
-3.9000000000000021e+00 +8.1525695253447523e+00 +0.0000000000000000e+00 -3.8999999683233697e+00 +2.2075609241895965e-04 +0.0000000000000000e+00 +9.9999997563337373e-01
-4.0000000000000018e+00 +8.1525471667143172e+00 +0.0000000000000000e+00 -3.9999999658236942e+00 +2.2641651651164011e-04 +0.0000000000000000e+00 +9.9999997436778043e-01
-4.1000000000000014e+00 +8.1525242420414124e+00 +0.0000000000000000e+00 -4.0999999631958577e+00 +2.3207694176288394e-04 +0.0000000000000000e+00 +9.9999997307014643e-01
-4.2000000000000011e+00 +8.1525007513259329e+00 +0.0000000000000000e+00 -4.1999999604366556e+00 +2.3773736794909027e-04 +0.0000000000000000e+00 +9.9999997174047184e-01
-4.3000000000000007e+00 +8.1524766945677971e+00 +0.0000000000000000e+00 -4.2999999575428838e+00 +2.4339779485384107e-04 +0.0000000000000000e+00 +9.9999997037875654e-01
-4.4000000000000004e+00 +8.1524520717669446e+00 +0.0000000000000000e+00 -4.3999999545113386e+00 +2.4905822226956752e-04 +0.0000000000000000e+00 +9.9999996898500076e-01
-4.5000000000000000e+00 +8.1524268829233328e+00 +0.0000000000000000e+00 -4.4999999513388156e+00 +2.5471864999755038e-04 +0.0000000000000000e+00 +9.9999996755920439e-01
-4.5999999999999996e+00 +8.1524011280369404e+00 +0.0000000000000000e+00 -4.5999999480221110e+00 +2.6037907784792047e-04 +0.0000000000000000e+00 +9.9999996610136754e-01
-4.6999999999999993e+00 +8.1523748071077655e+00 +0.0000000000000000e+00 -4.6999999445580212e+00 +2.6603950563965941e-04 +0.0000000000000000e+00 +9.9999996461149032e-01
-4.7999999999999989e+00 +8.1523479201358207e+00 +0.0000000000000000e+00 -4.7999999409433416e+00 +2.7169993320059994e-04 +0.0000000000000000e+00 +9.9999996308957273e-01
-4.8999999999999986e+00 +8.1523204671211378e+00 +0.0000000000000000e+00 -4.8999999371748677e+00 +2.7736036036742675e-04 +0.0000000000000000e+00 +9.9999996153561477e-01
-4.9999999999999982e+00 +8.1522924480637649e+00 +0.0000000000000000e+00 -4.9999999332493958e+00 +2.8302078698567702e-04 +0.0000000000000000e+00 +9.9999995994961655e-01
-5.0999999999999979e+00 +8.1522638629637640e+00 +0.0000000000000000e+00 -5.0999999291637224e+00 +2.8868121290974116e-04 +0.0000000000000000e+00 +9.9999995833157806e-01
-5.1999999999999975e+00 +8.1522347118212117e+00 +0.0000000000000000e+00 -5.1999999249146436e+00 +2.9434163800286369e-04 +0.0000000000000000e+00 +9.9999995668149944e-01
-5.2999999999999972e+00 +8.1522049946361967e+00 +0.0000000000000000e+00 -5.2999999204989550e+00 +3.0000206213714385e-04 +0.0000000000000000e+00 +9.9999995499938066e-01
-5.3999999999999968e+00 +8.1521747114088203e+00 +0.0000000000000000e+00 -5.3999999159134520e+00 +3.0566248519353661e-04 +0.0000000000000000e+00 +9.9999995328522184e-01
-5.4999999999999964e+00 +8.1521438621391979e+00 +0.0000000000000000e+00 -5.4999999111549309e+00 +3.1132290706185347e-04 +0.0000000000000000e+00 +9.9999995153902299e-01
-5.5999999999999961e+00 +8.1521124468274522e+00 +0.0000000000000000e+00 -5.5999999062201882e+00 +3.1698332764076333e-04 +0.0000000000000000e+00 +9.9999994976078410e-01
-5.6999999999999957e+00 +8.1520804654737162e+00 +0.0000000000000000e+00 -5.6999999011060201e+00 +3.2264374683779366e-04 +0.0000000000000000e+00 +9.9999994795050529e-01
-5.7999999999999954e+00 +8.1520479180781340e+00 +0.0000000000000000e+00 -5.7999998958092220e+00 +3.2830416456933127e-04 +0.0000000000000000e+00 +9.9999994610818665e-01
-5.8999999999999950e+00 +8.1520148046408547e+00 +0.0000000000000000e+00 -5.8999998903265896e+00 +3.3396458076062358e-04 +0.0000000000000000e+00 +9.9999994423382821e-01
-5.9999999999999947e+00 +8.1519811251620364e+00 +0.0000000000000000e+00 -5.9999998846549198e+00 +3.3962499534577955e-04 +0.0000000000000000e+00 +9.9999994232742995e-01
-6.0999999999999943e+00 +8.1519468796418408e+00 +0.0000000000000000e+00 -6.0999998787910084e+00 +3.4528540826833534e-04 +0.0000000000000000e+00 +9.9999994038899198e-01
-6.1999999999999940e+00 +8.1519120680804384e+00 +0.0000000000000000e+00 -6.1999998727316505e+00 +3.5094581948746294e-04 +0.0000000000000000e+00 +9.9999993841851431e-01
-6.2999999999999936e+00 +8.1518766904779998e+00 +0.0000000000000000e+00 -6.2999998664736427e+00 +3.5660622898417850e-04 +0.0000000000000000e+00 +9.9999993641599705e-01
-6.3999999999999932e+00 +8.1518407468346989e+00 +0.0000000000000000e+00 -6.3999998600137813e+00 +3.6226663676190647e-04 +0.0000000000000000e+00 +9.9999993438144019e-01
-6.4999999999999929e+00 +8.1518042371507047e+00 +0.0000000000000000e+00 -6.4999998533488625e+00 +3.6792704284647950e-04 +0.0000000000000000e+00 +9.9999993231484363e-01
-6.5999999999999925e+00 +8.1517671614261840e+00 +0.0000000000000000e+00 -6.5999998464756819e+00 +3.7358744728613818e-04 +0.0000000000000000e+00 +9.9999993021620748e-01
-6.6999999999999922e+00 +8.1517295196612984e+00 +0.0000000000000000e+00 -6.6999998393910358e+00 +3.7924785015153108e-04 +0.0000000000000000e+00 +9.9999992808553184e-01
-6.7999999999999918e+00 +8.1516913118562027e+00 +0.0000000000000000e+00 -6.7999998320917205e+00 +3.8490825153571434e-04 +0.0000000000000000e+00 +9.9999992592281650e-01
-6.8999999999999915e+00 +8.1516525380110370e+00 +0.0000000000000000e+00 -6.8999998245745315e+00 +3.9056865155415171e-04 +0.0000000000000000e+00 +9.9999992372806157e-01
-6.9999999999999911e+00 +8.1516131981259328e+00 +0.0000000000000000e+00 -6.9999998168362652e+00 +3.9622905034471413e-04 +0.0000000000000000e+00 +9.9999992150126704e-01
-7.0999999999999908e+00 +8.1515732922010038e+00 +0.0000000000000000e+00 -7.0999998088737168e+00 +4.0188944806767964e-04 +0.0000000000000000e+00 +9.9999991924243281e-01
-7.1999999999999904e+00 +8.1515328202363477e+00 +0.0000000000000000e+00 -7.1999998006836838e+00 +4.0754984490573321e-04 +0.0000000000000000e+00 +9.9999991695155876e-01
-7.2999999999999901e+00 +8.1514917822320445e+00 +0.0000000000000000e+00 -7.2999997922629607e+00 +4.1321024106396638e-04 +0.0000000000000000e+00 +9.9999991462864490e-01
-7.3999999999999897e+00 +8.1514501781881492e+00 +0.0000000000000000e+00 -7.3999997836083447e+00 +4.1887063676987701e-04 +0.0000000000000000e+00 +9.9999991227369123e-01
-7.4999999999999893e+00 +8.1514080081046973e+00 +0.0000000000000000e+00 -7.4999997747166312e+00 +4.2453103227336916e-04 +0.0000000000000000e+00 +9.9999990988669751e-01
-7.5999999999999890e+00 +8.1513652719816925e+00 +0.0000000000000000e+00 -7.5999997655846165e+00 +4.3019142784675267e-04 +0.0000000000000000e+00 +9.9999990746766365e-01
-7.6999999999999886e+00 +8.1513219698191151e+00 +0.0000000000000000e+00 -7.6999997562090963e+00 +4.3585182378474296e-04 +0.0000000000000000e+00 +9.9999990501658953e-01
-7.7999999999999883e+00 +8.1512781016169118e+00 +0.0000000000000000e+00 -7.7999997465868667e+00 +4.4151222040446071e-04 +0.0000000000000000e+00 +9.9999990253347504e-01
-7.8999999999999879e+00 +8.1512336673749992e+00 +0.0000000000000000e+00 -7.8999997367147232e+00 +4.4717261804543148e-04 +0.0000000000000000e+00 +9.9999990001831995e-01
-7.9999999999999876e+00 +8.1511886670932565e+00 +0.0000000000000000e+00 -7.9999997265894622e+00 +4.5283301706958552e-04 +0.0000000000000000e+00 +9.9999989747112417e-01
-8.0999999999999872e+00 +8.1511431007715256e+00 +0.0000000000000000e+00 -8.0999997162078792e+00 +4.5849341785950430e-04 +0.0000000000000000e+00 +9.9999989489188745e-01
-8.1999999999999869e+00 +8.1510969684096128e+00 +0.0000000000000000e+00 -8.1999997055667713e+00 +4.6415382079913648e-04 +0.0000000000000000e+00 +9.9999989228060959e-01
-8.2999999999999865e+00 +8.1510502700072820e+00 +0.0000000000000000e+00 -8.2999996946629331e+00 +4.6981422625451408e-04 +0.0000000000000000e+00 +9.9999988963729036e-01
-8.3999999999999861e+00 +8.1510030055642666e+00 +0.0000000000000000e+00 -8.3999996834931618e+00 +4.7547463457199937e-04 +0.0000000000000000e+00 +9.9999988696192965e-01
-8.4999999999999858e+00 +8.1509551750802611e+00 +0.0000000000000000e+00 -8.4999996720542512e+00 +4.8113504607828512e-04 +0.0000000000000000e+00 +9.9999988425452713e-01
-8.5999999999999854e+00 +8.1509067785549334e+00 +0.0000000000000000e+00 -8.5999996603429985e+00 +4.8679546108039467e-04 +0.0000000000000000e+00 +9.9999988151508268e-01
-8.6999999999999851e+00 +8.1508578159879193e+00 +0.0000000000000000e+00 -8.6999996483561990e+00 +4.9245587986568209e-04 +0.0000000000000000e+00 +9.9999987874359597e-01
-8.7999999999999847e+00 +8.1508082873788261e+00 +0.0000000000000000e+00 -8.7999996360906483e+00 +4.9811630270183219e-04 +0.0000000000000000e+00 +9.9999987594006690e-01
-8.8999999999999844e+00 +8.1507581927272366e+00 +0.0000000000000000e+00 -8.8999996235431436e+00 +5.0377672983686081e-04 +0.0000000000000000e+00 +9.9999987310449534e-01
-8.9999999999999840e+00 +8.1507075320327083e+00 +0.0000000000000000e+00 -8.9999996107104785e+00 +5.0943716149911482e-04 +0.0000000000000000e+00 +9.9999987023688097e-01
-9.0999999999999837e+00 +8.1506563052947794e+00 +0.0000000000000000e+00 -9.0999995975894503e+00 +5.1509759789727244e-04 +0.0000000000000000e+00 +9.9999986733722368e-01
-9.1999999999999833e+00 +8.1506045125129649e+00 +0.0000000000000000e+00 -9.1999995841768545e+00 +5.2075803922034319e-04 +0.0000000000000000e+00 +9.9999986440552324e-01
-9.2999999999999829e+00 +8.1505521536867658e+00 +0.0000000000000000e+00 -9.2999995704694864e+00 +5.2641848563766806e-04 +0.0000000000000000e+00 +9.9999986144177955e-01
-9.3999999999999826e+00 +8.1504992288156632e+00 +0.0000000000000000e+00 -9.3999995564641416e+00 +5.3207893729891975e-04 +0.0000000000000000e+00 +9.9999985844599237e-01
-9.4999999999999822e+00 +8.1504457378991262e+00 +0.0000000000000000e+00 -9.4999995421576156e+00 +5.3773939433410267e-04 +0.0000000000000000e+00 +9.9999985541816161e-01
-9.5999999999999819e+00 +8.1503916809366128e+00 +0.0000000000000000e+00 -9.5999995275467054e+00 +5.4339985685355335e-04 +0.0000000000000000e+00 +9.9999985235828703e-01
-9.6999999999999815e+00 +8.1503370579275689e+00 +0.0000000000000000e+00 -9.6999995126282048e+00 +5.4906032494794028e-04 +0.0000000000000000e+00 +9.9999984926636853e-01
-9.7999999999999812e+00 +8.1502818688714349e+00 +0.0000000000000000e+00 -9.7999994973989111e+00 +5.5472079868826437e-04 +0.0000000000000000e+00 +9.9999984614240600e-01
-9.8999999999999808e+00 +8.1502261137676424e+00 +0.0000000000000000e+00 -9.8999994818556178e+00 +5.6038127812585870e-04 +0.0000000000000000e+00 +9.9999984298639932e-01
-9.9999999999999805e+00 +8.1501697926156194e+00 +0.0000000000000000e+00 -9.9999994659951223e+00 +5.6604176329238913e-04 +0.0000000000000000e+00 +9.9999983979834839e-01
-1.0099999999999980e+01 +8.1501129054147921e+00 +0.0000000000000000e+00 -1.0099999449814220e+01 +5.7170225420031368e-04 +0.0000000000000000e+00 +9.9999983657825309e-01
-1.0199999999999980e+01 +8.1500554521645867e+00 +0.0000000000000000e+00 -1.0199999433309705e+01 +5.7736275084793699e-04 +0.0000000000000000e+00 +9.9999983332611320e-01
-1.0299999999999979e+01 +8.1499974328644313e+00 +0.0000000000000000e+00 -1.0299999416478373e+01 +5.8302325322446430e-04 +0.0000000000000000e+00 +9.9999983004192883e-01
-1.0399999999999979e+01 +8.1499388475137522e+00 +0.0000000000000000e+00 -1.0399999399317021e+01 +5.8868376131046020e-04 +0.0000000000000000e+00 +9.9999982672569976e-01
-1.0499999999999979e+01 +8.1498796961119808e+00 +0.0000000000000000e+00 -1.0499999381822445e+01 +5.9434427507784810e-04 +0.0000000000000000e+00 +9.9999982337742588e-01
-1.0599999999999978e+01 +8.1498199786585488e+00 +0.0000000000000000e+00 -1.0599999363991438e+01 +6.0000479448990942e-04 +0.0000000000000000e+00 +9.9999981999710719e-01
-1.0699999999999978e+01 +8.1497596951528966e+00 +0.0000000000000000e+00 -1.0699999345820798e+01 +6.0566531950128277e-04 +0.0000000000000000e+00 +9.9999981658474368e-01
-1.0799999999999978e+01 +8.1496988455944646e+00 +0.0000000000000000e+00 -1.0799999327307319e+01 +6.1132585005796328e-04 +0.0000000000000000e+00 +9.9999981314033515e-01
-1.0899999999999977e+01 +8.1496374299827021e+00 +0.0000000000000000e+00 -1.0899999308447796e+01 +6.1698638609730173e-04 +0.0000000000000000e+00 +9.9999980966388169e-01
-1.0999999999999977e+01 +8.1495754483170639e+00 +0.0000000000000000e+00 -1.0999999289239026e+01 +6.2264692754800393e-04 +0.0000000000000000e+00 +9.9999980615538309e-01
-1.1099999999999977e+01 +8.1495129005970135e+00 +0.0000000000000000e+00 -1.1099999269677804e+01 +6.2830747433012979e-04 +0.0000000000000000e+00 +9.9999980261483945e-01
-1.1199999999999976e+01 +8.1494497868220233e+00 +0.0000000000000000e+00 -1.1199999249760925e+01 +6.3396802635509253e-04 +0.0000000000000000e+00 +9.9999979904225067e-01
-1.1299999999999976e+01 +8.1493861069915710e+00 +0.0000000000000000e+00 -1.1299999229485186e+01 +6.3962858352565764e-04 +0.0000000000000000e+00 +9.9999979543761675e-01
-1.1399999999999975e+01 +8.1493218611051486e+00 +0.0000000000000000e+00 -1.1399999208847381e+01 +6.4528914573594236e-04 +0.0000000000000000e+00 +9.9999979180093768e-01
-1.1499999999999975e+01 +8.1492570491622587e+00 +0.0000000000000000e+00 -1.1499999187844306e+01 +6.5094971287141452e-04 +0.0000000000000000e+00 +9.9999978813221335e-01
-1.1599999999999975e+01 +8.1491916711624146e+00 +0.0000000000000000e+00 -1.1599999166472756e+01 +6.5661028480889171e-04 +0.0000000000000000e+00 +9.9999978443144388e-01
-1.1699999999999974e+01 +8.1491257271051420e+00 +0.0000000000000000e+00 -1.1699999144729526e+01 +6.6227086141654038e-04 +0.0000000000000000e+00 +9.9999978069862916e-01
