# field on trajectory
# s[mm] rx[mm] ry[mm] rz[mm] bx[T] by[T] bz[T]
0.0000000000000000e+00 +7.9199999999999999e+00 +0.0000000000000000e+00 +0.0000000000000000e+00 -3.1992440430361160e-02 -5.9459789119682926e-01 +5.9377768912674093e-03
1.0000000000000001e-01 +7.9199997168742700e+00 +0.0000000000000000e+00 +9.9999999999465614e-02 -3.1992391378156369e-02 -5.9459781032544379e-01 +5.9378096341710261e-03
2.0000000000000001e-01 +7.9199988674971298e+00 +0.0000000000000000e+00 +1.9999999999572479e-01 -3.1992348436353402e-02 -5.9459773369892543e-01 +5.9378440601889453e-03
3.0000000000000004e-01 +7.9199974518686522e+00 +0.0000000000000000e+00 +2.9999999998557114e-01 -3.1992311220734572e-02 -5.9459766147913296e-01 +5.9378800969856326e-03
4.0000000000000002e-01 +7.9199954699889066e+00 +0.0000000000000000e+00 +3.9999999996579833e-01 -3.1992279347082375e-02 -5.9459759382792088e-01 +5.9379176722285602e-03
5.0000000000000000e-01 +7.9199929218579568e+00 +0.0000000000000000e+00 +4.9999999993319988e-01 -3.1992252431179237e-02 -5.9459753090714096e-01 +5.9379567135880787e-03
5.9999999999999998e-01 +7.9199898074758632e+00 +0.0000000000000000e+00 +5.9999999988456942e-01 -3.1992230088807271e-02 -5.9459747287864362e-01 +5.9379971487372495e-03
6.9999999999999996e-01 +7.9199861268426819e+00 +0.0000000000000000e+00 +6.9999999981670047e-01 -3.1992211935748062e-02 -5.9459741990427661e-01 +5.9380389053517229e-03
7.9999999999999993e-01 +7.9199818799584625e+00 +0.0000000000000000e+00 +7.9999999972638669e-01 -3.1992197587782455e-02 -5.9459737214588959e-01 +5.9380819111095866e-03
8.9999999999999991e-01 +7.9199770668232503e+00 +0.0000000000000000e+00 +8.9999999961042176e-01 -3.1992186660690390e-02 -5.9459732976533164e-01 +5.9381260936912268e-03
9.9999999999999989e-01 +7.9199716874370871e+00 +0.0000000000000000e+00 +9.9999999946559914e-01 -3.1992178770250547e-02 -5.9459729292445473e-01 +5.9381713807791781e-03
1.0999999999999999e+00 +7.9199657418000067e+00 +0.0000000000000000e+00 +1.0999999992887126e+00 -3.1992173532240258e-02 -5.9459726178511307e-01 +5.9382177000579890e-03
1.2000000000000000e+00 +7.9199592299120400e+00 +0.0000000000000000e+00 +1.1999999990765555e+00 -3.1992170562435203e-02 -5.9459723650916474e-01 +5.9382649792140739e-03
1.3000000000000000e+00 +7.9199521517732112e+00 +0.0000000000000000e+00 +1.2999999988259217e+00 -3.1992169476609274e-02 -5.9459721725847337e-01 +5.9383131459355785e-03
1.4000000000000001e+00 +7.9199445073835379e+00 +0.0000000000000000e+00 +1.3999999985336045e+00 -3.1992169890534224e-02 -5.9459720419490669e-01 +5.9383621279122190e-03
1.5000000000000002e+00 +7.9199362967430336e+00 +0.0000000000000000e+00 +1.4999999981963978e+00 -3.1992171419979593e-02 -5.9459719748034068e-01 +5.9384118528351603e-03
1.6000000000000003e+00 +7.9199275198517052e+00 +0.0000000000000000e+00 +1.5999999978110950e+00 -3.1992173680712367e-02 -5.9459719727665838e-01 +5.9384622483968520e-03
1.7000000000000004e+00 +7.9199181767095528e+00 +0.0000000000000000e+00 +1.6999999973744899e+00 -3.1992176288496835e-02 -5.9459720374575198e-01 +5.9385132422909151e-03
1.8000000000000005e+00 +7.9199082673165702e+00 +0.0000000000000000e+00 +1.7999999968833760e+00 -3.1992178859094347e-02 -5.9459721704952206e-01 +5.9385647622119710e-03
1.9000000000000006e+00 +7.9198977916727449e+00 +0.0000000000000000e+00 +1.8999999963345469e+00 -3.1992181008263058e-02 -5.9459723734988079e-01 +5.9386167358555057e-03
2.0000000000000004e+00 +7.9198867497780583e+00 +0.0000000000000000e+00 +1.9999999957247960e+00 -3.1992182351757791e-02 -5.9459726480875186e-01 +5.9386690909177375e-03
2.1000000000000005e+00 +7.9198751416324846e+00 +0.0000000000000000e+00 +2.0999999950509172e+00 -3.1992182634752168e-02 -5.9459729943009454e-01 +5.9387217561626994e-03
2.2000000000000006e+00 +7.9198629672359910e+00 +0.0000000000000000e+00 +2.1999999943097039e+00 -3.1992182120105253e-02 -5.9459734058597047e-01 +5.9387746646234517e-03
2.3000000000000007e+00 +7.9198502265885393e+00 +0.0000000000000000e+00 +2.2999999934979498e+00 -3.1992181200092555e-02 -5.9459738749046487e-01 +5.9388277503995964e-03
2.4000000000000008e+00 +7.9198369196900851e+00 +0.0000000000000000e+00 +2.3999999926124485e+00 -3.1992180266983014e-02 -5.9459743935765941e-01 +5.9388809475897095e-03
2.5000000000000009e+00 +7.9198230465405794e+00 +0.0000000000000000e+00 +2.4999999916499935e+00 -3.1992179713038471e-02 -5.9459749540163409e-01 +5.9389341902910788e-03
2.6000000000000010e+00 +7.9198086071399691e+00 +0.0000000000000000e+00 +2.5999999906073783e+00 -3.1992179930513238e-02 -5.9459755483646337e-01 +5.9389874125994439e-03
2.7000000000000011e+00 +7.9197936014881982e+00 +0.0000000000000000e+00 +2.6999999894813969e+00 -3.1992181311653656e-02 -5.9459761687621815e-01 +5.9390405486087275e-03
2.8000000000000012e+00 +7.9197780295852089e+00 +0.0000000000000000e+00 +2.7999999882688424e+00 -3.1992184248697604e-02 -5.9459768073496266e-01 +5.9390935324107842e-03
2.9000000000000012e+00 +7.9197618914309400e+00 +0.0000000000000000e+00 +2.8999999869665087e+00 -3.1992189133874069e-02 -5.9459774562675483e-01 +5.9391462980951364e-03
3.0000000000000013e+00 +7.9197451870253301e+00 +0.0000000000000000e+00 +2.9999999855711894e+00 -3.1992196359402737e-02 -5.9459781076564611e-01 +5.9391987797487202e-03
3.1000000000000014e+00 +7.9197279163683190e+00 +0.0000000000000000e+00 +3.0999999840796777e+00 -3.1992206317493395e-02 -5.9459787536567865e-01 +5.9392509114555942e-03
3.2000000000000015e+00 +7.9197100794598452e+00 +0.0000000000000000e+00 +3.1999999824887677e+00 -3.1992219400345655e-02 -5.9459793864088661e-01 +5.9393026272967263e-03
3.3000000000000016e+00 +7.9196916762998484e+00 +0.0000000000000000e+00 +3.2999999807952527e+00 -3.1992236000148333e-02 -5.9459799980529371e-01 +5.9393538613496926e-03
3.4000000000000017e+00 +7.9196727068882717e+00 +0.0000000000000000e+00 +3.3999999789959263e+00 -3.1992256509079095e-02 -5.9459805807291333e-01 +5.9394045476884342e-03
3.5000000000000018e+00 +7.9196531712250602e+00 +0.0000000000000000e+00 +3.4999999770875818e+00 -3.1992281319303990e-02 -5.9459811265774754e-01 +5.9394546203829944e-03
3.6000000000000019e+00 +7.9196330693101622e+00 +0.0000000000000000e+00 +3.5999999750670133e+00 -3.1992310822976967e-02 -5.9459816277378608e-01 +5.9395040134992581e-03
3.7000000000000020e+00 +7.9196124011435316e+00 +0.0000000000000000e+00 +3.6999999729310140e+00 -3.1992345412239408e-02 -5.9459820763500559e-01 +5.9395526610986826e-03
3.8000000000000020e+00 +7.9195911667251258e+00 +0.0000000000000000e+00 +3.7999999706763776e+00 -3.1992385479219690e-02 -5.9459824645536918e-01 +5.9396004972380508e-03
3.9000000000000021e+00 +7.9195693660549082e+00 +0.0000000000000000e+00 +3.8999999682998978e+00 -3.1992431416032766e-02 -5.9459827844882507e-01 +5.9396474559691957e-03
4.0000000000000018e+00 +7.9195469991328498e+00 +0.0000000000000000e+00 +3.9999999657983683e+00 -3.1992483614779590e-02 -5.9459830282930592e-01 +5.9396934713387495e-03
4.1000000000000014e+00 +7.9195240659589281e+00 +0.0000000000000000e+00 +4.0999999631685826e+00 -3.1992542292688601e-02 -5.9459831914623218e-01 +5.9397385113278359e-03
4.2000000000000011e+00 +7.9195005665331273e+00 +0.0000000000000000e+00 +4.1999999604073341e+00 -3.1992606967546369e-02 -5.9459832829103187e-01 +5.9397826796739580e-03
4.3000000000000007e+00 +7.9194765008554402e+00 +0.0000000000000000e+00 +4.2999999575114165e+00 -3.1992676982284252e-02 -5.9459833149063857e-01 +5.9398261140546629e-03
4.4000000000000004e+00 +7.9194518689258642e+00 +0.0000000000000000e+00 +4.3999999544776234e+00 -3.1992751679839330e-02 -5.9459832997198880e-01 +5.9398689521481729e-03
4.5000000000000000e+00 +7.9194266707444019e+00 +0.0000000000000000e+00 +4.4999999513027475e+00 -3.1992830403155072e-02 -5.9459832496202325e-01 +5.9399113316334759e-03
4.5999999999999996e+00 +7.9194009063110578e+00 +0.0000000000000000e+00 +4.5999999479835836e+00 -3.1992912495182137e-02 -5.9459831768768556e-01 +5.9399533901904810e-03
4.6999999999999993e+00 +7.9193745756258407e+00 +0.0000000000000000e+00 +4.6999999445169252e+00 -3.1992997298879063e-02 -5.9459830937592439e-01 +5.9399952655001158e-03
4.7999999999999989e+00 +7.9193476786887587e+00 +0.0000000000000000e+00 +4.7999999408995651e+00 -3.1993084157213039e-02 -5.9459830125369217e-01 +5.9400370952444629e-03
4.8999999999999986e+00 +7.9193202154998197e+00 +0.0000000000000000e+00 +4.8999999371282978e+00 -3.1993172413160596e-02 -5.9459829454794766e-01 +5.9400790171068732e-03
4.9999999999999982e+00 +7.9192921860590317e+00 +0.0000000000000000e+00 +4.9999999331999163e+00 -3.1993261409708401e-02 -5.9459829048565449e-01 +5.9401211687721009e-03
5.0999999999999979e+00 +7.9192635903663993e+00 +0.0000000000000000e+00 +5.0999999291112141e+00 -3.1993350489853932e-02 -5.9459829029378175e-01 +5.9401636879264121e-03
5.1999999999999975e+00 +7.9192344284219232e+00 +0.0000000000000000e+00 +5.1999999248589850e+00 -3.1993438996606255e-02 -5.9459829519930529e-01 +5.9402067122577154e-03
5.2999999999999972e+00 +7.9192047002255999e+00 +0.0000000000000000e+00 +5.2999999204400225e+00 -3.1993526272986732e-02 -5.9459830642920797e-01 +5.9402503794556850e-03
5.3999999999999968e+00 +7.9191744057774187e+00 +0.0000000000000000e+00 +5.3999999158511205e+00 -3.1993611662029783e-02 -5.9459832521047873e-01 +5.9402948272118733e-03
5.4999999999999964e+00 +7.9191435450773637e+00 +0.0000000000000000e+00 +5.4999999110890725e+00 -3.1993694506783618e-02 -5.9459835277011541e-01 +5.9403401932198539e-03
5.5999999999999961e+00 +7.9191121181254092e+00 +0.0000000000000000e+00 +5.5999999061506722e+00 -3.1993774150310940e-02 -5.9459839033512307e-01 +5.9403866151753141e-03
5.6999999999999957e+00 +7.9190801249215204e+00 +0.0000000000000000e+00 +5.6999999010327134e+00 -3.1993849935689725e-02 -5.9459843913251409e-01 +5.9404342307761999e-03
5.7999999999999954e+00 +7.9190475654656511e+00 +0.0000000000000000e+00 +5.7999998957319887e+00 -3.1993921206013916e-02 -5.9459850038931139e-01 +5.9404831777228337e-03
5.8999999999999950e+00 +7.9190144397577447e+00 +0.0000000000000000e+00 +5.8999998902452919e+00 -3.1993987304394206e-02 -5.9459857533254634e-01 +5.9405335937180344e-03
5.9999999999999947e+00 +7.9189807477977299e+00 +0.0000000000000000e+00 +5.9999998845694176e+00 -3.1994047573958739e-02 -5.9459866518925886e-01 +5.9405856164672340e-03
6.0999999999999943e+00 +7.9189464895855233e+00 +0.0000000000000000e+00 +6.0999998787011585e+00 -3.1994101545331201e-02 -5.9459877088985913e-01 +5.9406393504266800e-03
6.1999999999999940e+00 +7.9189116651210245e+00 +0.0000000000000000e+00 +6.1999998726373082e+00 -3.1994149499064581e-02 -5.9459889217820405e-01 +5.9406947670467601e-03
6.2999999999999936e+00 +7.9188762744041190e+00 +0.0000000000000000e+00 +6.2999998663746606e+00 -3.1994191903205724e-02 -5.9459902850153712e-01 +5.9407518045272306e-03
6.3999999999999932e+00 +7.9188403174346789e+00 +0.0000000000000000e+00 +6.3999998599100083e+00 -3.1994229225816684e-02 -5.9459917930713235e-01 +5.9408104010692676e-03
6.4999999999999929e+00 +7.9188037942125611e+00 +0.0000000000000000e+00 +6.4999998532401460e+00 -3.1994261934975440e-02 -5.9459934404229720e-01 +5.9408704948755719e-03
6.5999999999999925e+00 +7.9187667047376111e+00 +0.0000000000000000e+00 +6.5999998463618663e+00 -3.1994290498776307e-02 -5.9459952215437251e-01 +5.9409320241503808e-03
6.6999999999999922e+00 +7.9187290490096593e+00 +0.0000000000000000e+00 +6.6999998392719631e+00 -3.1994315385330513e-02 -5.9459971309073389e-01 +5.9409949270995610e-03
6.7999999999999918e+00 +7.9186908270285254e+00 +0.0000000000000000e+00 +6.7999998319672299e+00 -3.1994337062766817e-02 -5.9459991629879405e-01 +5.9410591419306541e-03
6.8999999999999915e+00 +7.9186520387940176e+00 +0.0000000000000000e+00 +6.8999998244444605e+00 -3.1994355999231942e-02 -5.9460013122600230e-01 +5.9411246068529367e-03
6.9999999999999911e+00 +7.9186126843059323e+00 +0.0000000000000000e+00 +6.9999998167004476e+00 -3.1994372662891152e-02 -5.9460035731984606e-01 +5.9411912600774719e-03
7.0999999999999908e+00 +7.9185727635640548e+00 +0.0000000000000000e+00 +7.0999998087319858e+00 -3.1994387521928867e-02 -5.9460059402785392e-01 +5.9412590398171825e-03
7.1999999999999904e+00 +7.9185322765681621e+00 +0.0000000000000000e+00 +7.1999998005358679e+00 -3.1994401044549099e-02 -5.9460084079759390e-01 +5.9413278842868978e-03
7.2999999999999901e+00 +7.9184912233180196e+00 +0.0000000000000000e+00 +7.2999997921088875e+00 -3.1994413698976071e-02 -5.9460109707667663e-01 +5.9413977317034159e-03
7.3999999999999897e+00 +7.9184496038133849e+00 +0.0000000000000000e+00 +7.3999997834478375e+00 -3.1994425953454739e-02 -5.9460136231275607e-01 +5.9414685202855691e-03
7.4999999999999893e+00 +7.9184074180540067e+00 +0.0000000000000000e+00 +7.4999997745495124e+00 -3.1994438276251355e-02 -5.9460163595353088e-01 +5.9415401882542667e-03
7.5999999999999890e+00 +7.9183646660396265e+00 +0.0000000000000000e+00 +7.5999997654107050e+00 -3.1994451135653967e-02 -5.9460191744674440e-01 +5.9416126738325702e-03
7.6999999999999886e+00 +7.9183213477699770e+00 +0.0000000000000000e+00 +7.6999997560282081e+00 -3.1994464999972987e-02 -5.9460220624018734e-01 +5.9416859152457389e-03
7.7999999999999883e+00 +7.9182774632447845e+00 +0.0000000000000000e+00 +7.7999997463988162e+00 -3.1994480337541813e-02 -5.9460250178169860e-01 +5.9417598507213072e-03
7.8999999999999879e+00 +7.9182330124637694e+00 +0.0000000000000000e+00 +7.8999997365193222e+00 -3.1994497616717223e-02 -5.9460280351916528e-01 +5.9418344184891210e-03
7.9999999999999876e+00 +7.9181879954266456e+00 +0.0000000000000000e+00 +7.9999997263865197e+00 -3.1994517305880085e-02 -5.9460311090052587e-01 +5.9419095567814079e-03
8.0999999999999872e+00 +7.9181424121331219e+00 +0.0000000000000000e+00 +8.0999997159972015e+00 -3.1994539764218712e-02 -5.9460342342218753e-01 +5.9419852023389124e-03
8.1999999999999869e+00 +7.9180962625829023e+00 +0.0000000000000000e+00 +8.1999997053481621e+00 -3.1994564914065542e-02 -5.9460374077424127e-01 +5.9420612859271259e-03
8.2999999999999865e+00 +7.9180495467756860e+00 +0.0000000000000000e+00 +8.2999996944361953e+00 -3.1994592568534222e-02 -5.9460406269513388e-01 +5.9421377368146172e-03
8.3999999999999861e+00 +7.9180022647111681e+00 +0.0000000000000000e+00 +8.3999996832580930e+00 -3.1994622540735901e-02 -5.9460438892323542e-01 +5.9422144842663574e-03
8.4999999999999858e+00 +7.9179544163890387e+00 +0.0000000000000000e+00 +8.4999996718106487e+00 -3.1994654643778965e-02 -5.9460471919683755e-01 +5.9422914575436190e-03
8.5999999999999854e+00 +7.9179060018089853e+00 +0.0000000000000000e+00 +8.5999996600906563e+00 -3.1994688690768644e-02 -5.9460505325414936e-01 +5.9423685859038315e-03
8.6999999999999851e+00 +7.9178570209706916e+00 +0.0000000000000000e+00 +8.6999996480949093e+00 -3.1994724494806816e-02 -5.9460539083329589e-01 +5.9424457986004689e-03
8.7999999999999847e+00 +7.9178074738738378e+00 +0.0000000000000000e+00 +8.7999996358202015e+00 -3.1994761868991604e-02 -5.9460573167231590e-01 +5.9425230248829307e-03
8.8999999999999844e+00 +7.9177573605181006e+00 +0.0000000000000000e+00 +8.8999996232633247e+00 -3.1994800626417116e-02 -5.9460607550915778e-01 +5.9426001939964059e-03
8.9999999999999840e+00 +7.9177066809031542e+00 +0.0000000000000000e+00 +8.9999996104210727e+00 -3.1994840580173128e-02 -5.9460642208167747e-01 +5.9426772351817625e-03
9.0999999999999837e+00 +7.9176554350286699e+00 +0.0000000000000000e+00 +9.0999995972902390e+00 -3.1994881543344733e-02 -5.9460677112763571e-01 +5.9427540776754084e-03
9.1999999999999833e+00 +7.9176036228943172e+00 +0.0000000000000000e+00 +9.1999995838676174e+00 -3.1994923329012104e-02 -5.9460712238469626e-01 +5.9428306507091945e-03
9.2999999999999829e+00 +7.9175512444997640e+00 +0.0000000000000000e+00 +9.2999995701500016e+00 -3.1994965750250119e-02 -5.9460747559042160e-01 +5.9429068835102575e-03
9.3999999999999826e+00 +7.9174982998446746e+00 +0.0000000000000000e+00 +9.3999995561341851e+00 -3.1995008620128065e-02 -5.9460783048227117e-01 +5.9429827053009247e-03
9.4999999999999822e+00 +7.9174447889287132e+00 +0.0000000000000000e+00 +9.4999995418169600e+00 -3.1995051751709351e-02 -5.9460818679759908e-01 +5.9430580452985863e-03
9.5999999999999819e+00 +7.9173907117515423e+00 +0.0000000000000000e+00 +9.5999995271951200e+00 -3.1995094958051175e-02 -5.9460854427365106e-01 +5.9431328327155539e-03
9.6999999999999815e+00 +7.9173360683128227e+00 +0.0000000000000000e+00 +9.6999995122654585e+00 -3.1995138052204171e-02 -5.9460890264756083e-01 +5.9432069967589604e-03
9.7999999999999812e+00 +7.9172808586122159e+00 +0.0000000000000000e+00 +9.7999994970247677e+00 -3.1995180847212187e-02 -5.9460926165634898e-01 +5.9432804666306235e-03
9.8999999999999808e+00 +7.9172250826493809e+00 +0.0000000000000000e+00 +9.8999994814698429e+00 -3.1995223156111870e-02 -5.9460962103691939e-01 +5.9433531715269317e-03
9.9999999999999805e+00 +7.9171687404239774e+00 +0.0000000000000000e+00 +9.9999994655974760e+00 -3.1995264791932425e-02 -5.9460998052605651e-01 +5.9434250406387107e-03
1.0099999999999980e+01 +7.9171118319356655e+00 +0.0000000000000000e+00 +1.0099999449404461e+01 -3.1995305559673511e-02 -5.9461033994490897e-01 +5.9434960219317953e-03
1.0199999999999980e+01 +7.9170543571841039e+00 +0.0000000000000000e+00 +1.0199999432887591e+01 -3.1995345232220869e-02 -5.9461069945249401e-01 +5.9435661384946246e-03
1.0299999999999979e+01 +7.9169963161689525e+00 +0.0000000000000000e+00 +1.0299999416043658e+01 -3.1995383574378693e-02 -5.9461105929232749e-01 +5.9436354322034320e-03
1.0399999999999979e+01 +7.9169377088898703e+00 +0.0000000000000000e+00 +1.0399999398869458e+01 -3.1995420350885435e-02 -5.9461141970794529e-01 +5.9437039449422692e-03
1.0499999999999979e+01 +7.9168785353465152e+00 +0.0000000000000000e+00 +1.0499999381361782e+01 -3.1995455326412146e-02 -5.9461178094290634e-01 +5.9437717186032095e-03
1.0599999999999978e+01 +7.9168187955385463e+00 +0.0000000000000000e+00 +1.0599999363517423e+01 -3.1995488265560798e-02 -5.9461214324079248e-01 +5.9438387950865564e-03
1.0699999999999978e+01 +7.9167584894656198e+00 +0.0000000000000000e+00 +1.0699999345333175e+01 -3.1995518932862656e-02 -5.9461250684521061e-01 +5.9439052163010467e-03
1.0799999999999978e+01 +7.9166976171273920e+00 +0.0000000000000000e+00 +1.0799999326805832e+01 -3.1995547092776563e-02 -5.9461287199979185e-01 +5.9439710241640641e-03
1.0899999999999977e+01 +7.9166361785235164e+00 +0.0000000000000000e+00 +1.0899999307932186e+01 -3.1995572509687306e-02 -5.9461323894819418e-01 +5.9440362606018324e-03
1.0999999999999977e+01 +7.9165741736536459e+00 +0.0000000000000000e+00 +1.0999999288709031e+01 -3.1995594947903966e-02 -5.9461360793410190e-01 +5.9441009675496445e-03
1.1099999999999977e+01 +7.9165116025174305e+00 +0.0000000000000000e+00 +1.1099999269133161e+01 -3.1995614171658214e-02 -5.9461397920122827e-01 +5.9441651869520384e-03
1.1199999999999976e+01 +7.9164484651145193e+00 +0.0000000000000000e+00 +1.1199999249201367e+01 -3.1995629945102674e-02 -5.9461435299331433e-01 +5.9442289607630327e-03
1.1299999999999976e+01 +7.9163847614445579e+00 +0.0000000000000000e+00 +1.1299999228910444e+01 -3.1995642032309278e-02 -5.9461472955413197e-01 +5.9442923309463184e-03
1.1399999999999975e+01 +7.9163204915071894e+00 +0.0000000000000000e+00 +1.1399999208257183e+01 -3.1995650197267536e-02 -5.9461510912748261e-01 +5.9443553394754618e-03
1.1499999999999975e+01 +7.9162556553020549e+00 +0.0000000000000000e+00 +1.1499999187238380e+01 -3.1995654203882930e-02 -5.9461549195720032e-01 +5.9444180283341223e-03
1.1599999999999975e+01 +7.9161902528287920e+00 +0.0000000000000000e+00 +1.1599999165850827e+01 -3.1995653815975252e-02 -5.9461587828715101e-01 +5.9444804395162500e-03
1.1699999999999974e+01 +7.9161242840870347e+00 +0.0000000000000000e+00 +1.1699999144091317e+01 -3.1995648797276892e-02 -5.9461626836123460e-01 +5.9445426150262987e-03
1.1799999999999974e+01 +7.9160577490764137e+00 +0.0000000000000000e+00 +1.1799999121956642e+01 -3.1995638911431222e-02 -5.9461666242338496e-01 +5.9446045968794270e-03
