# multipoles
# s[mm] polynom_b[n=0][T/m^n] polynom_b[n=1][T/m^n] polynom_b[n=2][T/m^n] polynom_b[n=3][T/m^n] polynom_b[n=4][T/m^n] polynom_b[n=5][T/m^n] polynom_b[n=6][T/m^n] 
+0.0000000000000000e+00 -5.9242244579241776e-01 +8.1041889949372568e+00 -2.9195492190237521e-01 +6.1454081669650414e+01 -1.4446803602568327e+03 -5.0830220620171999e+05 -6.2188829305533599e+06 
+1.0000000000000001e-01 -5.9242261272091834e-01 +8.1041674518305467e+00 -2.8739795785291850e-01 +6.1915563213084319e+01 -1.5571779923265144e+03 -5.1052039033808972e+05 -5.7230801418542853e+06 
+2.0000000000000001e-01 -5.9242278532731862e-01 +8.1041431129274777e+00 -2.8251000199788906e-01 +6.2423954305893979e+01 -1.6767336072920114e+03 -5.1294237184504321e+05 -5.1914230349444300e+06 
+3.0000000000000004e-01 -5.9242296311856835e-01 +8.1041162828811935e+00 -2.7732279142300847e-01 +6.2974206130282887e+01 -1.8026544297420389e+03 -5.1554591041569010e+05 -4.6272237126536509e+06 
+4.0000000000000002e-01 -5.9242314560160203e-01 +8.1040872663322396e+00 -2.7186806455292961e-01 +6.3561270229201554e+01 -1.9342476615317057e+03 -5.1830876787327067e+05 -4.0337943800232233e+06 
+5.0000000000000000e-01 -5.9242333228335642e-01 +8.1040563679251125e+00 -2.6617755905853169e-01 +6.4180098049651122e+01 -2.0708205230311924e+03 -5.2120870555667893e+05 -3.4144471431815713e+06 
+5.9999999999999998e-01 -5.9242352267074672e-01 +8.1040238923018570e+00 -2.6028301561072154e-01 +6.4825641102074670e+01 -2.2116801752752799e+03 -5.2422348519408994e+05 -2.7724943970122444e+06 
+6.9999999999999996e-01 -5.9242371627070856e-01 +8.1039901441080442e+00 -2.5421617122449336e-01 +6.5492850796608110e+01 -2.3561338569882460e+03 -5.2733086796686542e+05 -2.1112481443483988e+06 
+7.9999999999999993e-01 -5.9242391259019178e-01 +8.1039554279879749e+00 -2.4800876207429048e-01 +6.6176678573935689e+01 -2.5034888172717906e+03 -5.3050861524759850e+05 -1.4340203524452187e+06 
+8.9999999999999991e-01 -5.9242411113609128e-01 +8.1039200485885736e+00 -2.4169253053933501e-01 +6.6872075798398697e+01 -2.6530521925321104e+03 -5.3373448799850838e+05 -7.4412350990757160e+05 
+9.9999999999999989e-01 -5.9242431141535290e-01 +8.1038843105496756e+00 -2.3529921324481420e-01 +6.7573994015430074e+01 -2.8041312244122314e+03 -5.3698624818926444e+05 -4.4869614142836101e+04 
+1.0999999999999999e+00 -5.9242451293492837e-01 +8.1038485185225539e+00 -2.2886054649544349e-01 +6.8277384434437195e+01 -2.9560331582544595e+03 -5.4024165586029610e+05 +6.6042934990871383e+05 
+1.2000000000000000e+00 -5.9242471520175033e-01 +8.1038129771547638e+00 -2.2240826877242637e-01 +6.8977198353979730e+01 -3.1080652022264621e+03 -5.4347847154491628e+05 +1.3684612349028594e+06 
+1.3000000000000000e+00 -5.9242491772279893e-01 +8.1037779910928762e+00 -2.1597411371415556e-01 +6.9668387073516314e+01 -3.2595346489877479e+03 -5.4667445572415809e+05 +2.0759142776470231e+06 
+1.4000000000000001e+00 -5.9242512000502667e-01 +8.1037438649851303e+00 -2.0958981892540227e-01 +7.0345901824052618e+01 -3.4097487118750387e+03 -5.4980736845936021e+05 +2.7794763286745204e+06 
+1.5000000000000002e+00 -5.9242532155544003e-01 +8.1037109034871619e+00 -2.0328711584616907e-01 +7.1004693594579962e+01 -3.5580147215975944e+03 -5.5285496834831848e+05 +3.4758358030657033e+06 
+1.6000000000000003e+00 -5.9242552188102326e-01 +8.1036794112515000e+00 -1.9709773981827919e-01 +7.1639713431404672e+01 -3.7036399264212550e+03 -5.5579501425617386e+05 +4.1616807038501939e+06 
+1.7000000000000004e+00 -5.9242572048880848e-01 +8.1036496929315565e+00 -1.9105342065851474e-01 +7.2245912317482350e+01 -3.8459316783773615e+03 -5.5860526459736587e+05 +4.8336995285677528e+06 
+1.8000000000000005e+00 -5.9242591688583646e-01 +8.1036220531868679e+00 -1.8518588873911171e-01 +7.2818241030569595e+01 -3.9841973082178661e+03 -5.6126347653563810e+05 +5.4885806491011353e+06 
+1.9000000000000006e+00 -5.9242611057918426e-01 +8.1035967966794882e+00 -1.7952687101126827e-01 +7.3351650221148830e+01 -4.1177442084431659e+03 -5.6374740636958263e+05 +6.1230127287963675e+06 
+2.0000000000000004e+00 -5.9242630107593297e-01 +8.1035742280690997e+00 -1.7410809468005106e-01 +7.3841090572571929e+01 -4.2458797598430529e+03 -5.6603481050352869e+05 +6.7336843595607886e+06 
+2.1000000000000005e+00 -5.9242648806577791e-01 +8.1035545883005362e+00 -1.6895504221246371e-01 +7.4282566525100151e+01 -4.3680361404840014e+03 -5.6810838987133582e+05 +7.3178521114999698e+06 
+2.2000000000000006e+00 -5.9242667196582821e-01 +8.1035378638547115e+00 -1.6406777520124258e-01 +7.4676337734622422e+01 -4.4841505779541912e+03 -5.6997077965709218e+05 +7.8750697939523850e+06 
+2.3000000000000007e+00 -5.9242685337429701e-01 +8.1035239776954580e+00 -1.5943989009083576e-01 +7.5023737379055689e+01 -4.5942880487348484e+03 -5.7162963589074963e+05 +8.4054719170058873e+06 
+2.4000000000000008e+00 -5.9242703288942655e-01 +8.1035128527911571e+00 -1.5506498080558292e-01 +7.5326098483529165e+01 -4.6985135697577825e+03 -5.7309261366860056e+05 +8.9091931651636548e+06 
+2.5000000000000009e+00 -5.9242721110944008e-01 +8.1035044121010191e+00 -1.5093664336216081e-01 +7.5584754299535774e+01 -4.7968921173641138e+03 -5.7436736929446750e+05 +9.3863680277541038e+06 
+2.6000000000000010e+00 -5.9242738863258559e-01 +8.1034985785933564e+00 -1.4704847164115425e-01 +7.5801037799531358e+01 -4.8894887015543836e+03 -5.7546155742630572e+05 +9.8371311367080994e+06 
+2.7000000000000011e+00 -5.9242756605709623e-01 +8.1034952752330494e+00 -1.4339406170826174e-01 +7.5976282016002799e+01 -4.9763682880271199e+03 -5.7638283295769815e+05 +1.0261616907475693e+07 
+2.8000000000000012e+00 -5.9242774398121290e-01 +8.1034944249864616e+00 -1.3996700892169606e-01 +7.6111819905719670e+01 -5.0575958505433509e+03 -5.7713885026388639e+05 +1.0659959778763304e+07 
+2.9000000000000012e+00 -5.9242792300320624e-01 +8.1034959508155779e+00 -1.3676090551942166e-01 +7.6208984531259745e+01 -5.1332364168525810e+03 -5.7773726427329867e+05 +1.1032294432763455e+07 
+3.0000000000000013e+00 -5.9242810372128674e-01 +8.1034997756914837e+00 -1.3376935140129340e-01 +7.6269108652415412e+01 -5.2033548667935129e+03 -5.7818572805232415e+05 +1.1378754842017027e+07 
+3.1000000000000014e+00 -5.9242828673372538e-01 +8.1035058225752845e+00 -1.3098593986957338e-01 +7.6293525295221571e+01 -5.2680161955213653e+03 -5.7849189614869712e+05 +1.1699475500748996e+07 
+3.2000000000000015e+00 -5.9242847263876097e-01 +8.1035140144327755e+00 -1.2840426782757192e-01 +7.6283567314870893e+01 -5.3272853310400687e+03 -5.7866342201818409e+05 +1.1994590587154292e+07 
+3.3000000000000016e+00 -5.9242866203463485e-01 +8.1035242742294571e+00 -1.2601793277891091e-01 +7.6240567538568683e+01 -5.3812271807714296e+03 -5.7870795885240519e+05 +1.2264234156631816e+07 
+3.4000000000000017e+00 -5.9242885551960367e-01 +8.1035365249309006e+00 -1.2382053033533737e-01 +7.6165858770819952e+01 -5.4299066841707299e+03 -5.7863315964853065e+05 +1.2508540405338367e+07 
+3.5000000000000018e+00 -5.9242905369188903e-01 +8.1035506894966183e+00 -1.2180566110691135e-01 +7.6060773944824589e+01 -5.4733886799080692e+03 -5.7844667801213043e+05 +1.2727643034301966e+07 
+3.6000000000000019e+00 -5.9242925714972761e-01 +8.1035666908929720e+00 -1.1996692391798969e-01 +7.5926645771813995e+01 -5.5117380358231057e+03 -5.7815616619047406e+05 +1.2921675870084921e+07 
+3.7000000000000020e+00 -5.9242946649136119e-01 +8.1035844520805007e+00 -1.1829791720549523e-01 +7.5764807096315735e+01 -5.5450196215038350e+03 -5.7776927709787898e+05 +1.3090772730808228e+07 
+3.8000000000000020e+00 -5.9242968231500626e-01 +8.1036038960217347e+00 -1.1679224306261463e-01 +7.5576590676150701e+01 -5.5732982314649944e+03 -5.7729366305197147e+05 +1.3235067061779622e+07 
+3.9000000000000021e+00 -5.9242990521890260e-01 +8.1036249456770726e+00 -1.1544350079600019e-01 +7.5363329285207286e+01 -5.5966387059570470e+03 -5.7673697632540890e+05 +1.3354692504306655e+07 
+4.0000000000000018e+00 -5.9243013580124526e-01 +8.1036475240079096e+00 -1.1424529561843626e-01 +7.5126355645297750e+01 -5.6151057694650253e+03 -5.7610686880857556e+05 +1.3449782139499554e+07 
+4.1000000000000014e+00 -5.9243037458997871e-01 +8.1036715249393705e+00 -1.1318825211261523e-01 +7.4867281756423651e+01 -5.6288337678471935e+03 -5.7541120593835181e+05 +1.3520822009065391e+07 
+4.2000000000000011e+00 -5.9243062183556316e-01 +8.1036967217942664e+00 -1.1224976668977994e-01 +7.4588908058238957e+01 -5.6382535637430874e+03 -5.7465909102279891e+05 +1.3569767720331583e+07 
+4.3000000000000007e+00 -5.9243087771995739e-01 +8.1037228566026158e+00 -1.1140359443911668e-01 +7.4294349466591214e+01 -5.6438747850044101e+03 -5.7386002651690401e+05 +1.3598957377882410e+07 
+4.4000000000000004e+00 -5.9243114242513917e-01 +8.1037496713875310e+00 -1.1062348594253349e-01 +7.3986721100068905e+01 -5.6462071546973721e+03 -5.7302351607223484e+05 +1.3610729554599207e+07 
+4.5000000000000000e+00 -5.9243141613303762e-01 +8.1037769081706958e+00 -1.0988319589574087e-01 +7.3669138108381844e+01 -5.6457603272068482e+03 -5.7215906349534146e+05 +1.3607422511429250e+07 
+4.5999999999999996e+00 -5.9243169902557646e-01 +8.1038043089716201e+00 -1.0915647781051896e-01 +7.3344715717770612e+01 -5.6430439910353198e+03 -5.7127617308744870e+05 +1.3591374694093527e+07 
+4.6999999999999993e+00 -5.9243199128461632e-01 +8.1038316158046602e+00 -1.0841709017045238e-01 +7.3016569290021963e+01 -5.6385677543056645e+03 -5.7038434990146372e+05 +1.3564924190792399e+07 
+4.7999999999999989e+00 -5.9243229309203260e-01 +8.1038585706845687e+00 -1.0763878731892601e-01 +7.2687814194792551e+01 -5.6328413163541181e+03 -5.6949309909579402e+05 +1.3530409546186933e+07 
+4.8999999999999986e+00 -5.9243260462965408e-01 +8.1038849156173907e+00 -1.0679532740697771e-01 +7.2361566039525613e+01 -5.6263743148294780e+03 -5.6861192717880243e+05 +1.3490169028160185e+07 
+4.9999999999999982e+00 -5.9243292607928799e-01 +8.1039103926078049e+00 -1.0586046763893146e-01 +7.2040940487181089e+01 -5.6196764260015043e+03 -5.6775034103075485e+05 +1.3446541130380621e+07 
+5.0999999999999979e+00 -5.9243325762268784e-01 +8.1039347436596749e+00 -1.0480796975201929e-01 +7.1729053234375712e+01 -5.6132572501521399e+03 -5.6691784776161297e+05 +1.3401863998666309e+07 
+5.1999999999999975e+00 -5.9243359944159557e-01 +8.1039577107631793e+00 -1.0361159361208110e-01 +7.1429020383977189e+01 -5.6076264423160846e+03 -5.6612395687334123e+05 +1.3358476077066017e+07 
+5.2999999999999972e+00 -5.9243395171772395e-01 +8.1039790359193642e+00 -1.0224509974095572e-01 +7.1143957713261756e+01 -5.6032936612775929e+03 -5.6537817595484818e+05 +1.3318715856121944e+07 
+5.3999999999999968e+00 -5.9243431463273621e-01 +8.1039984611079454e+00 -1.0068225170694195e-01 +7.0876981660090209e+01 -5.6007685256699260e+03 -5.6469001655713818e+05 +1.3284921668798259e+07 
+5.4999999999999964e+00 -5.9243468836825097e-01 +8.1040157283184282e+00 -9.8896814912324410e-02 +7.0631208368737958e+01 -5.6005606377347985e+03 -5.6406898850287753e+05 +1.3259431801343586e+07 
+5.5999999999999961e+00 -5.9243507310586407e-01 +8.1040305795255545e+00 -9.6862554422212269e-02 +7.0409754433935191e+01 -5.6031796266675710e+03 -5.6352460429991339e+05 +1.3244584709635021e+07 
+5.6999999999999957e+00 -5.9243546902715105e-01 +8.1040427567060593e+00 -9.4553234131205394e-02 +7.0215736409385002e+01 -5.6091351625237394e+03 -5.6306637627118290e+05 +1.3242719075856613e+07 
+5.7999999999999954e+00 -5.9243587631360728e-01 +8.1040520018261599e+00 -9.1942623863424652e-02 +7.0052271163104876e+01 -5.6189368258848508e+03 -5.6270381860065577e+05 +1.3256173200751459e+07 
+5.8999999999999950e+00 -5.9243629514669183e-01 +8.1040580568508194e+00 -8.9004494483652621e-02 +6.9922475633694219e+01 -5.6330941978874716e+03 -5.6244644597854372e+05 +1.3287285425630290e+07 
+5.9999999999999947e+00 -5.9243672570783712e-01 +8.1040606637359289e+00 -8.5712615895656222e-02 +6.9829467031840139e+01 -5.6521169003966288e+03 -5.6230377469186240e+05 +1.3338394327012463e+07 
+6.0999999999999943e+00 -5.9243716795185608e-01 +8.1040596373181621e+00 -8.2052495657634075e-02 +6.9775377778114105e+01 -5.6763549004614206e+03 -5.6228154846781690e+05 +1.3411205250848239e+07 
+6.1999999999999940e+00 -5.9243762092936036e-01 +8.1040550817204107e+00 -7.8059243184296662e-02 +6.9758468083432788e+01 -5.7054858929694183e+03 -5.6237078025178832e+05 +1.3504768961779350e+07 
+6.2999999999999936e+00 -5.9243808346541316e-01 +8.1040471729378467e+00 -7.3781032823213077e-02 +6.9776048030576234e+01 -5.7390111371536759e+03 -5.6255889870055858e+05 +1.3617442471173804e+07 
+6.3999999999999932e+00 -5.9243855438507120e-01 +8.1040360869659729e+00 -6.9266040512728277e-02 +6.9825427812275095e+01 -5.7764318599514490e+03 -5.6283333338982705e+05 +1.3747582628259577e+07 
+6.4999999999999929e+00 -5.9243903251342500e-01 +8.1040219998194463e+00 -6.4562438313931395e-02 +6.9903917195870079e+01 -5.8172493616541024e+03 -5.6318151176003262e+05 +1.3893546628847230e+07 
+6.5999999999999925e+00 -5.9243951667559214e-01 +8.1040050875219265e+00 -5.9718396047373876e-02 +7.0008825823362869e+01 -5.8609649797132333e+03 -5.6359086088499182e+05 +1.4053691827935712e+07 
+6.6999999999999922e+00 -5.9244000569669553e-01 +8.1039855261100442e+00 -5.4782083389292330e-02 +7.0137463084896069e+01 -5.9070800525328441e+03 -5.6404880668759928e+05 +1.4226375578832747e+07 
+6.7999999999999918e+00 -5.9244049840190161e-01 +8.1039634916327188e+00 -4.9801665235236471e-02 +7.0287138159193461e+01 -5.9550960072996359e+03 -5.6454277424300532e+05 +1.4409955649644967e+07 
+6.8999999999999915e+00 -5.9244099361639813e-01 +8.1039391601553188e+00 -4.4825305168300439e-02 +7.0455159900647999e+01 -6.0045142897379510e+03 -5.6506018713517231e+05 +1.4602789878430154e+07 
+6.9999999999999911e+00 -5.9244149016536773e-01 +8.1039127077576900e+00 -3.9901168246505116e-02 +7.0638836893472543e+01 -6.0548363154188992e+03 -5.6558846777387511e+05 +1.4803235952695051e+07 
+7.0999999999999908e+00 -5.9244198687406446e-01 +8.1038843105260643e+00 -3.5077411512885827e-02 +7.0835477680234092e+01 -6.1055636470998270e+03 -5.6611503868267487e+05 +1.5009652243769029e+07 
+7.1999999999999904e+00 -5.9244248256774279e-01 +8.1038541445735675e+00 -3.0402193258641980e-02 +7.1042390196276358e+01 -6.1561978193268642e+03 -5.6662731931949279e+05 +1.5220396976858797e+07 
+7.2999999999999901e+00 -5.9244297607170127e-01 +8.1038223860236371e+00 -2.5923667373135856e-02 +7.1256882244723045e+01 -6.2062404462323211e+03 -5.6711272879636881e+05 +1.5433828743727831e+07 
+7.3999999999999897e+00 -5.9244346621125299e-01 +8.1037892110116339e+00 -2.1689987068286686e-02 +7.1476261452829888e+01 -6.2551931497110281e+03 -5.6755868564845214e+05 +1.5648306158121787e+07 
+7.4999999999999893e+00 -5.9244395181175014e-01 +8.1037547956981442e+00 -1.7749301874202456e-02 +7.1697834885571751e+01 -6.3025576166695082e+03 -5.6795260557776119e+05 +1.5862188128778793e+07 
+7.5999999999999890e+00 -5.9244443169857808e-01 +8.1037193162527146e+00 -1.4149759219215716e-02 +7.1918909541479451e+01 -6.3478355652012051e+03 -5.6828190440214588e+05 +1.6073833689653559e+07 
+7.6999999999999886e+00 -5.9244490469717936e-01 +8.1036829488684194e+00 -1.0939500029335856e-02 +7.2136791916324356e+01 -6.3905288346398302e+03 -5.6853399548081646e+05 +1.6281602443433307e+07 
+7.7999999999999883e+00 -5.9244536963298844e-01 +8.1036458697546987e+00 -8.1666680678140653e-03 +7.2348788220324408e+01 -6.4301392031745618e+03 -5.6869629100560234e+05 +1.6483853683176978e+07 
+7.8999999999999879e+00 -5.9244582533149293e-01 +8.1036082551375639e+00 -5.8794021798526420e-03 +7.2552204390745842e+01 -6.4661685342382925e+03 -5.6875620211398369e+05 +1.6678947084792159e+07 
+7.9999999999999876e+00 -5.9244627061825539e-01 +8.1035702812646626e+00 -4.1258332526424015e-03 +7.2744345941457723e+01 -6.4981188370627651e+03 -5.6870113797865168e+05 +1.6865243006042328e+07 
+8.0999999999999872e+00 -5.9244670471841188e-01 +8.1035321274715582e+00 -2.9392986164018054e-03 +7.2922786684858309e+01 -6.5256108034697054e+03 -5.6852094228860945e+05 +1.7041372042487819e+07 
+8.1999999999999869e+00 -5.9244712844728387e-01 +8.1034940031433518e+00 -2.2953990732562093e-03 +7.3085617458689114e+01 -6.5487273138774381e+03 -5.6821234998775087e+05 +1.7207043077456184e+07 
+8.2999999999999865e+00 -5.9244754301593483e-01 +8.1034561295963297e+00 -2.1556940322186207e-03 +7.3230923288380041e+01 -6.5676623282016481e+03 -5.6777314373672544e+05 +1.7362227052755240e+07 
+8.3999999999999861e+00 -5.9244794963548020e-01 +8.1034187281334553e+00 -2.4817399894054982e-03 +7.3356789417809409e+01 -6.5826098418993406e+03 -5.6720110709718533e+05 +1.7506895054899141e+07 
+8.4999999999999858e+00 -5.9244834951702385e-01 +8.1033820200360758e+00 -3.2350996268062271e-03 +7.3461301532274490e+01 -6.5937637081213734e+03 -5.6649402571077622e+05 +1.7641017453912620e+07 
+8.5999999999999854e+00 -5.9244874387176416e-01 +8.1033462265724818e+00 -4.3773282619943756e-03 +7.3542545513877201e+01 -6.6013178935146098e+03 -5.6564968589820876e+05 +1.7764565112775169e+07 
+8.6999999999999851e+00 -5.9244913391092813e-01 +8.1033115689956592e+00 -5.8699816706872443e-03 +7.3598607490471437e+01 -6.6054663359086871e+03 -5.6466587489435717e+05 +1.7877508731755253e+07 
+8.7999999999999847e+00 -5.9244952084576252e-01 +8.1032782685346056e+00 -7.6746186217367916e-03 +7.3627574096594643e+01 -6.6064028853771615e+03 -5.6354038239112636e+05 +1.7979818538591962e+07 
+8.8999999999999844e+00 -5.9244990588758573e-01 +8.1032465464092613e+00 -9.7527938715516807e-03 +7.3627532010650057e+01 -6.6043214401759387e+03 -5.6227099776823202e+05 +1.8071464942605369e+07 
+8.9999999999999840e+00 -5.9245029024773566e-01 +8.1032166238087555e+00 -1.2066063703975706e-02 +7.3596568595019406e+01 -6.5994158498728766e+03 -5.6085551383676368e+05 +1.8152418097776324e+07 
+9.0999999999999837e+00 -5.9245067513762428e-01 +8.1031887219144760e+00 -1.4575981474576323e-02 +7.3532771219618851e+01 -6.5918799825370143e+03 -5.5929172289153899e+05 +1.8222648177937482e+07 
+9.1999999999999833e+00 -5.9245106176869233e-01 +8.1031630618806005e+00 -1.7244101239046059e-02 +7.3434227811945505e+01 -6.5819076720510884e+03 -5.5757741987254506e+05 +1.8282125168442350e+07 
+9.2999999999999829e+00 -5.9245145135243127e-01 +8.1031398648406725e+00 -2.0031976890219579e-02 +7.3299026664681165e+01 -6.5696927192161584e+03 -5.5571040122955258e+05 +1.8330818832343023e+07 
+9.3999999999999826e+00 -5.9245184510036986e-01 +8.1031193519118059e+00 -2.2901162482743698e-02 +7.3125256317241792e+01 -6.5554288966890381e+03 -5.5368846426200843e+05 +1.8368698764050853e+07 
+9.4999999999999822e+00 -5.9245224422412446e-01 +8.1031017441829967e+00 -2.5813207569152303e-02 +7.2911005869506127e+01 -6.5393100272635074e+03 -5.5150940885839250e+05 +1.8395734735923808e+07 
+9.5999999999999819e+00 -5.9245264993532321e-01 +8.1030872627252872e+00 -2.8729665532263166e-02 +7.2654364689717937e+01 -6.5215298305580782e+03 -5.4917103582087322e+05 +1.8411895980958976e+07 
+9.6999999999999815e+00 -5.9245306344567417e-01 +8.1030761285860589e+00 -3.1612085431405479e-02 +7.2353422578963162e+01 -6.5022820799443289e+03 -5.4667114780634968e+05 +1.8417151948115077e+07 
+9.7999999999999812e+00 -5.9245348596692138e-01 +8.1030685627868504e+00 -3.4422018931048716e-02 +7.2006269805532654e+01 -6.4817604575522892e+03 -5.4400754945237574e+05 +1.8411471575895231e+07 
+9.8999999999999808e+00 -5.9245391871086750e-01 +8.1030647863273622e+00 -3.7121015481506821e-02 +7.1610997025777252e+01 -6.4601586617801577e+03 -5.4117804702711524e+05 +1.8394823848062351e+07 
+9.9999999999999805e+00 -5.9245436288937781e-01 +8.1030650201854755e+00 -3.9670623230289512e-02 +7.1165695180234167e+01 -6.4376703849085370e+03 -5.3818044768767420e+05 +1.8367177664986812e+07 
+1.0099999999999980e+01 -5.9245481951888235e-01 +8.1030694326542463e+00 -4.2036141328271666e-02 +7.0668618449446981e+01 -6.4145178316374022e+03 -5.3501085764281475e+05 +1.8328777751399145e+07 
