# multipoles
# s[mm] polynom_b[n=0][T/m^n] polynom_b[n=1][T/m^n] polynom_b[n=2][T/m^n] polynom_b[n=3][T/m^n] polynom_b[n=4][T/m^n] polynom_b[n=5][T/m^n] polynom_b[n=6][T/m^n] 
+0.0000000000000000e+00 -5.3699232723341694e-01 +7.3628109446420655e+00 -7.1994284140312920e-02 +4.7667662233453880e+00 -5.8966326670427916e+03 -2.7249820723752957e+05 +2.4356567921818852e+07 
+1.0000000000000001e-01 -5.3699220617353194e-01 +7.3628385728634820e+00 -6.7118590006825740e-02 +3.7862907405049366e+00 -5.9895950572501752e+03 -2.6634960388620669e+05 +2.4795415563654922e+07 
+2.0000000000000001e-01 -5.3699206874916938e-01 +7.3628718622946483e+00 -6.3519681220860533e-02 +2.6833230722387404e+00 -6.0642400386092031e+03 -2.5957801761901303e+05 +2.5167883095820736e+07 
+2.9999999999999999e-01 -5.3699191614862918e-01 +7.3629102660592292e+00 -6.1135657329258263e-02 +1.4704853274603154e+00 -6.1213121686233962e+03 -2.5225016298742045e+05 +2.5476013059692301e+07 
+4.0000000000000002e-01 -5.3699174956030493e-01 +7.3629532372849233e+00 -5.9904618220572352e-02 +1.6039950482212803e-01 -6.1615559949900444e+03 -2.4443275400506437e+05 +2.5721847938834012e+07 
+5.0000000000000000e-01 -5.3699157017255761e-01 +7.3630002291079668e+00 -5.9764658665232048e-02 -1.2343126410223548e+00 -6.1857161564189619e+03 -2.3619250335406713e+05 +2.5907430632192917e+07 
+5.9999999999999998e-01 -5.3699137917377504e-01 +7.3630506946683472e+00 -6.0653877375023632e-02 -2.7010294609253771e+00 -6.1945372128753334e+03 -2.2759612316678971e+05 +2.6034803654227674e+07 
+6.9999999999999996e-01 -5.3699117775233940e-01 +7.3631040871107967e+00 -6.2510367287122004e-02 -4.2271294410447888e+00 -6.1887638322235362e+03 -2.1871032483649449e+05 +2.6106010028115317e+07 
+8.0000000000000004e-01 -5.3699096709662519e-01 +7.3631598595824981e+00 -6.5272225667834652e-02 -5.7999911416761059e+00 -6.1691405990474732e+03 -2.0960181934144496e+05 +2.6123092379107296e+07 
+9.0000000000000002e-01 -5.3699074839502559e-01 +7.3632174652368017e+00 -6.8877547967297115e-02 -7.4069933098143865e+00 -6.1364121301897630e+03 -2.0033731656597965e+05 +2.6088093481150113e+07 
+1.0000000000000000e+00 -5.3699052283591853e-01 +7.3632763572258106e+00 -7.3264431245465042e-02 -9.0355146530333705e+00 -6.0913230127910956e+03 -1.9098352662362996e+05 +2.6003055971603453e+07 
+1.1000000000000001e+00 -5.3699029160773082e-01 +7.3633359887049767e+00 -7.8370973097936017e-02 -1.0672933997156026e+01 -6.0346178265033059e+03 -1.8160715885833636e+05 +2.5870022462613996e+07 
+1.2000000000000000e+00 -5.3699005589873394e-01 +7.3633958128288901e+00 -8.4135274301630578e-02 -1.2306630142076529e+01 -5.9670410875362995e+03 -1.7227492273326940e+05 +2.5691035260325372e+07 
+1.3000000000000000e+00 -5.3698981689729242e-01 +7.3634552827509054e+00 -9.0495435867444657e-02 -1.3923981875886245e+01 -5.8893373174553853e+03 -1.6305352765451919e+05 +2.5468136725079224e+07 
+1.3999999999999999e+00 -5.3698957579174678e-01 +7.3635138516264389e+00 -9.7389562497877211e-02 -1.5512368055017953e+01 -5.8022509664937770e+03 -1.5400968254400700e+05 +2.5203368881141476e+07 
+1.5000000000000000e+00 -5.3698933377035118e-01 +7.3635709726075209e+00 -1.0475576193657377e-01 -1.7059167460671503e+01 -5.7065264348000301e+03 -1.4521009660970003e+05 +2.4898773539741240e+07 
+1.6000000000000001e+00 -5.3698909202136913e-01 +7.3636260988410900e+00 -1.1253214391896471e-01 -1.8551758742885792e+01 -5.6029080881799173e+03 -1.3672147967286845e+05 +2.4556392364222549e+07 
+1.7000000000000000e+00 -5.3698885173299526e-01 +7.3636786834741468e+00 -1.2065682573387637e-01 -1.9977520578217735e+01 -5.4921401577325778e+03 -1.2861054121851137e+05 +2.4178266407003649e+07 
+1.8000000000000000e+00 -5.3698861409345477e-01 +7.3637281796460687e+00 -1.2906792355487837e-01 -2.1323831449858595e+01 -5.3749669020948131e+03 -1.2094399164460115e+05 +2.3766436875913169e+07 
+1.8999999999999999e+00 -5.3698838029083262e-01 +7.3637740404942358e+00 -1.3770356344392173e-01 -2.2578069807279388e+01 -5.2521324011962552e+03 -1.1378854132970748e+05 +2.3322944160203312e+07 
+2.0000000000000000e+00 -5.3698815151324675e-01 +7.3638157191483895e+00 -1.4650187291655717e-01 -2.3727613909265639e+01 -5.1243807179641790e+03 -1.0721090151202853e+05 +2.2849828606639009e+07 
+2.1000000000000001e+00 -5.3698792878147372e-01 +7.3638528019417331e+00 -1.5540928743835900e-01 -2.4763017728081653e+01 -4.9923928550878809e+03 -1.0126101157352133e+05 +2.2349151967253607e+07 
+2.2000000000000002e+00 -5.3698771245644528e-01 +7.3638854057534893e+00 -1.6440599967853214e-01 -2.5687422759489504e+01 -4.8565805004192653e+03 -9.5922637661891436e+04 +2.1822963208913218e+07 
+2.2999999999999998e+00 -5.3698750273626072e-01 +7.3639137795542577e+00 -1.7348077576874721e-01 -2.6507089240983806e+01 -4.7172837504989011e+03 -9.1163226681859058e+04 +2.1273283837057084e+07 
+2.3999999999999999e+00 -5.3698729981904714e-01 +7.3639381723170718e+00 -1.8262238483063148e-01 -2.7228277470033895e+01 -4.5748426462361303e+03 -8.6950225214400605e+04 +2.0702135099211078e+07 
+2.5000000000000000e+00 -5.3698710390287829e-01 +7.3639588330120045e+00 -1.9181959576695468e-01 -2.7857247658902175e+01 -4.4295972322045318e+03 -8.3251080338034124e+04 +2.0111538262197964e+07 
+2.6000000000000001e+00 -5.3698691518584918e-01 +7.3639760106109486e+00 -2.0106117538628701e-01 -2.8400260067480176e+01 -4.2818875886741343e+03 -8.0033238878224613e+04 +1.9503514754803184e+07 
+2.7000000000000002e+00 -5.3698673386615015e-01 +7.3639899540799778e+00 -2.1033589163351452e-01 -2.8863574774644309e+01 -4.1320537742269225e+03 -7.7264148759058924e+04 +1.8880085905562807e+07 
+2.7999999999999998e+00 -5.3698656014180912e-01 +7.3640009123916910e+00 -2.1963251306156834e-01 -2.9253452035960471e+01 -3.9804358318622753e+03 -7.4911256937133774e+04 +1.8243272960286923e+07 
+2.8999999999999999e+00 -5.3698639421100103e-01 +7.3640091345163921e+00 -2.2893980618901735e-01 -2.9576152032868364e+01 -3.8273738440986372e+03 -7.2942010849656304e+04 +1.7595097358661894e+07 
+3.0000000000000000e+00 -5.3698623627184494e-01 +7.3640148694195267e+00 -2.3824653531280376e-01 -2.9837934792084589e+01 -3.6732079273142781e+03 -7.1323858902546141e+04 +1.6937580680673741e+07 
+3.1000000000000001e+00 -5.3698608652247104e-01 +7.3640183660738279e+00 -2.4754146643720504e-01 -3.0045060532257764e+01 -3.5182781654087821e+03 -7.0024248489923848e+04 +1.6272744354869176e+07 
+3.2000000000000002e+00 -5.3698594516105713e-01 +7.3640198734479014e+00 -2.5681336330665022e-01 -3.0203789338087031e+01 -3.3629246796354532e+03 -6.9010627864433132e+04 +1.5602609974303281e+07 
+3.2999999999999998e+00 -5.3698581238573340e-01 +7.3640196405088529e+00 -2.6605098600309030e-01 -3.0320381226280276e+01 -3.2074876560667417e+03 -6.8250445798369168e+04 +1.4929199430703703e+07 
+3.3999999999999999e+00 -5.3698568839475147e-01 +7.3640179162267527e+00 -2.7524309609513253e-01 -3.0401096283073180e+01 -3.0523072491942321e+03 -6.7711150770231950e+04 +1.4254534457368772e+07 
+3.5000000000000000e+00 -5.3698557338625419e-01 +7.3640149495716996e+00 -2.8437844966062120e-01 -3.0452194566680870e+01 -2.8977237072693865e+03 -6.7360191565773930e+04 +1.3580637207677327e+07 
+3.6000000000000001e+00 -5.3698546755851706e-01 +7.3640109895100103e+00 -2.9344580262691483e-01 -3.0479936006589796e+01 -2.7440772821788678e+03 -6.7165017845786104e+04 +1.2909529857335789e+07 
+3.7000000000000002e+00 -5.3698537110976319e-01 +7.3640062850150416e+00 -3.0243390829996747e-01 -3.0490580705722344e+01 -2.5917082630148393e+03 -6.7093078432431765e+04 +1.2243234724420961e+07 
+3.7999999999999998e+00 -5.3698528423826897e-01 +7.3640010850540794e+00 -3.1133151670670806e-01 -3.0490388565576211e+01 -2.4409569991962321e+03 -6.7111823474185338e+04 +1.1583774412430014e+07 
+3.8999999999999999e+00 -5.3698520714233045e-01 +7.3639956385980634e+00 -3.2012737616864090e-01 -3.0485619551860214e+01 -2.2921638629405911e+03 -6.7188702954927241e+04 +1.0933171607752731e+07 
+4.0000000000000000e+00 -5.3698514002032116e-01 +7.3639901946172630e+00 -3.2881022946935279e-01 -3.0482533591290615e+01 -2.1456693211886941e+03 -6.7291167230792955e+04 +1.0293449422195055e+07 
+4.0999999999999996e+00 -5.3698508297969405e-01 +7.3639849308379732e+00 -3.3736625175554941e-01 -3.0485451631003773e+01 -2.0018321690465814e+03 -6.7396480983364017e+04 +9.6666167288833484e+06 
+4.2000000000000002e+00 -5.3698503575515377e-01 +7.3639797374697888e+00 -3.4577072406294340e-01 -3.0491009280816737e+01 -1.8611102264800643e+03 -6.7520596174999882e+04 +9.0547578866408058e+06 
+4.2999999999999998e+00 -5.3698499798580823e-01 +7.3639744321392877e+00 -3.5399604053422323e-01 -3.0493936090620728e+01 -1.7239924520957932e+03 -6.7689003397520995e+04 +8.4600086469664443e+06 
+4.4000000000000004e+00 -5.3698496931080242e-01 +7.3639688324673527e+00 -3.6201460350633297e-01 -3.0488961416646365e+01 -1.5909676607599256e+03 -6.7927194431889948e+04 +7.8845041129147680e+06 
+4.5000000000000000e+00 -5.3698494936919317e-01 +7.3639627560702143e+00 -3.6979881591117658e-01 -3.0470814468415973e+01 -1.4625246659703103e+03 -6.8260661943648622e+04 +7.3303794127974147e+06 
+4.5999999999999996e+00 -5.3698493780005763e-01 +7.3639560205586960e+00 -3.7732108133979642e-01 -3.0434224266662408e+01 -1.3391522782314526e+03 -6.8714899768510906e+04 +6.7997696907942798e+06 
+4.7000000000000002e+00 -5.3698493424243654e-01 +7.3639484435417630e+00 -3.8455381078858714e-01 -3.0373919762495614e+01 -1.2213391795715988e+03 -6.9315402181697864e+04 +6.2948095171370395e+06 
+4.7999999999999998e+00 -5.3698493833531968e-01 +7.3639398426192875e+00 -3.9146941454527229e-01 -3.0284629617266280e+01 -1.1095740771248736e+03 -7.0087665205921861e+04 +5.8176336172653064e+06 
+4.9000000000000004e+00 -5.3698494971767474e-01 +7.3639300353892105e+00 -3.9804030845709593e-01 -3.0161082408685168e+01 -1.0043455868534199e+03 -7.1057185416018838e+04 +5.3703763278048337e+06 
+5.0000000000000000e+00 -5.3698496802844609e-01 +7.3639188394402844e+00 -4.0423891088081676e-01 -2.9998006427770143e+01 -9.0614228863398762e+02 -7.2249461089750883e+04 +4.9551718477719938e+06 
+5.0999999999999996e+00 -5.3698499290656110e-01 +7.3639060723630170e+00 -4.1003764528905812e-01 -2.9790129979356980e+01 -8.1545268003290607e+02 -7.3689990522716253e+04 +4.5741540317045199e+06 
+5.2000000000000002e+00 -5.3698502399087100e-01 +7.3638915517336256e+00 -4.1540893757868441e-01 -2.9532180943073676e+01 -7.3276522534944945e+02 -7.5404274492144003e+04 +4.2294566134731704e+06 
+5.2999999999999998e+00 -5.3698506092019438e-01 +7.3638750951258416e+00 -4.2032522015235591e-01 -2.9218887081293222e+01 -6.5856828349217744e+02 -7.7417814563185544e+04 +3.9232128806979172e+06 
+5.4000000000000004e+00 -5.3698510333336669e-01 +7.3638565201084676e+00 -4.2475892654930941e-01 -2.8844975995113483e+01 -5.9335020510736979e+02 -7.9756113281396931e+04 +3.6575561222273572e+06 
+5.5000000000000000e+00 -5.3698515086909315e-01 +7.3638356442414574e+00 -4.2868249595796404e-01 -2.8405174999085670e+01 -5.3759925057320595e+02 -8.2444674916619435e+04 +3.4346192494865581e+06 
+5.5999999999999996e+00 -5.3698520316616727e-01 +7.3638122850799981e+00 -4.3206837233932921e-01 -2.7894211232753431e+01 -4.9180360761524452e+02 -8.5509004841641174e+04 +3.2565348801921606e+06 
+5.7000000000000002e+00 -5.3698525986318402e-01 +7.3637862601714312e+00 -4.3488900420773829e-01 -2.7306811583158819e+01 -4.5645139399258517e+02 -8.8974609949027188e+04 +3.1254353510107053e+06 
+5.7999999999999998e+00 -5.3698532059883319e-01 +7.3637573870551840e+00 -4.3711684404032547e-01 -2.6637702675610278e+01 -4.3203067175820735e+02 -9.2866998716155460e+04 +3.0434527902690577e+06 
+5.9000000000000004e+00 -5.3698538501163529e-01 +7.3637254832648678e+00 -4.3872435182549513e-01 -2.5881610927434934e+01 -4.1902937654076266e+02 -9.7211680925594555e+04 +3.0127187749241805e+06 
+5.9999999999999902e+00 -5.3698545274022613e-01 +7.3636903663264492e+00 -4.3968398906497902e-01 -2.5033262512636789e+01 -4.1793543783076598e+02 -1.0203416785470578e+05 +3.0353649160762811e+06 
+6.0999999999999899e+00 -5.3698552356363016e-01 +7.3636519288290589e+00 -4.3997986221313329e-01 -2.4089632993554293e+01 -4.2900234385087310e+02 -1.0734817025878254e+05 +3.1124299397998038e+06 
+6.1999999999999904e+00 -5.3698559783876576e-01 +7.3636103816253149e+00 -4.3964361535757573e-01 -2.3056956173659607e+01 -4.5149708069694253e+02 -1.1311901315347012e+05 +3.2403127339131874e+06 
+6.2999999999999901e+00 -5.3698567607071290e-01 +7.3635660198617323e+00 -4.3871908571776680e-01 -2.1943854196458375e+01 -4.8442669017780605e+02 -1.1929958904139545e+05 +3.4141798850240353e+06 
+6.3999999999999897e+00 -5.3698575876462751e-01 +7.3635191386826424e+00 -4.3725009882212168e-01 -2.0758949254820227e+01 -5.2679841936420303e+02 -1.2584278980406308e+05 +3.6291988937108279e+06 
+6.4999999999999902e+00 -5.3698584642560776e-01 +7.3634700332431127e+00 -4.3528048046307294e-01 -1.9510863964096050e+01 -5.7761950203789308e+02 -1.3270150452048285e+05 +3.8805371561916200e+06 
+6.5999999999999899e+00 -5.3698593955895257e-01 +7.3634189986931844e+00 -4.3285404513568926e-01 -1.8208220907890830e+01 -6.3589737493989537e+02 -1.3982862209314448e+05 +4.1633629830017393e+06 
+6.6999999999999904e+00 -5.3698603866990602e-01 +7.3633663301907850e+00 -4.3001460488083720e-01 -1.6859643028774283e+01 -7.0063950346311105e+02 -1.4717702893656082e+05 +4.4728447508282606e+06 
+6.7999999999999901e+00 -5.3698614426381031e-01 +7.3633123228969160e+00 -4.2680596256916470e-01 -1.5473753476057992e+01 -7.7085351976997322e+02 -1.5469960989796504e+05 +4.8041515892010638e+06 
+6.8999999999999897e+00 -5.3698625684605961e-01 +7.3632572719746321e+00 -4.2327191569438072e-01 -1.4059175601618154e+01 -8.4554713734112238e+02 -1.6234924820268000e+05 +5.1524529348218394e+06 
+6.9999999999999902e+00 -5.3698637692215923e-01 +7.3632014725898323e+00 -4.1945625105522849e-01 -1.2624532962552472e+01 -9.2372826282115966e+02 -1.7007882549308092e+05 +5.5129190935595343e+06 
+7.0999999999999899e+00 -5.3698650499758271e-01 +7.3631452199150571e+00 -4.1540275347936889e-01 -1.1178449467696314e+01 -1.0044048204482502e+03 -1.7784122088373790e+05 +5.8807203762136912e+06 
+7.1999999999999904e+00 -5.3698664157794840e-01 +7.3630888091266140e+00 -4.1115519320918376e-01 -9.7295492649469146e+00 -1.0865849989807884e+03 -1.8558931168764629e+05 +6.2510282939660214e+06 
+7.2999999999999901e+00 -5.3698678716892279e-01 +7.3630325354027670e+00 -4.0675733834610472e-01 -8.2864567195887258e+00 -1.1692770085994198e+03 -1.9327597345772790e+05 +6.6190143815807467e+06 
+7.3999999999999897e+00 -5.3698694227618282e-01 +7.3629766939278234e+00 -4.0225294651524718e-01 -6.8577965279528712e+00 -1.2514892393246923e+03 -2.0085407934149969e+05 +6.9798509507334437e+06 
+7.4999999999999902e+00 -5.3698710740563760e-01 +7.3629215798947740e+00 -3.9768576299923941e-01 -5.4521937929060496e+00 -1.3322303014720906e+03 -2.0827649964092398e+05 +7.3287112959823851e+06 
+7.5999999999999899e+00 -5.3698728306306553e-01 +7.3628674884963941e+00 -3.9309953020829391e-01 -4.0782737802418128e+00 -1.4105088362280314e+03 -2.1549610318551707e+05 +7.6607687645136025e+06 
+7.6999999999999904e+00 -5.3698746975447098e-01 +7.3628147149314112e+00 -3.8853797643296295e-01 -2.7446621029352292e+00 -1.4853337341587946e+03 -2.2246575624637678e+05 +7.9711978115713522e+06 
+7.7999999999999901e+00 -5.3698766798592101e-01 +7.3627635544042649e+00 -3.8404482179977134e-01 -1.4599847097276397e+00 -1.5557140259895396e+03 -2.2913832261605797e+05 +8.2551734873612588e+06 
+7.8999999999999897e+00 -5.3698787826351346e-01 +7.3627143021287456e+00 -3.7966377752830444e-01 -2.3286799706321670e-01 -1.6206588831617698e+03 -2.3546666293344161e+05 +8.5078714040557109e+06 
+7.9999999999999902e+00 -5.3698810109349437e-01 +7.3626672533206419e+00 -3.7543854307245333e-01 +9.2806139901639984e-01 -1.6791776813231313e+03 -2.4140363585884526e+05 +8.7244680622681491e+06 
+8.0999999999999908e+00 -5.3698833670106105e-01 +7.3626226679799247e+00 -3.7140762702950303e-01 +2.0151817078367649e+00 -1.7304554107462798e+03 -2.4690774969818990e+05 +8.9010737587027531e+06 
+8.1999999999999904e+00 -5.3698858417634132e-01 +7.3625806361109989e+00 -3.6758825083085273e-01 +3.0254418900022468e+00 -1.7744058345032890e+03 -2.5196281068487692e+05 +9.0377012202686332e+06 
+8.2999999999999901e+00 -5.3698884232293809e-01 +7.3625411977427850e+00 -3.6399206086657299e-01 +3.9570786540793215e+00 -1.8111338182946463e+03 -2.5655967008510660e+05 +9.1353919475437645e+06 
+8.3999999999999897e+00 -5.3698910994450266e-01 +7.3625043929084661e+00 -3.6063070035571815e-01 +4.8083287241995851e+00 -1.8407442810062378e+03 -2.6068917967323444e+05 +9.1951876658753082e+06 
+8.4999999999999893e+00 -5.3698938584473666e-01 +7.3624702616505164e+00 -3.5751580915437337e-01 +5.5774286751945583e+00 -1.8633421989223123e+03 -2.6434219070415286e+05 +9.2181303475770522e+06 
+8.5999999999999908e+00 -5.3698966882731891e-01 +7.3624388440179427e+00 -3.5465902319775194e-01 +6.2626150426214791e+00 -1.8790326136020374e+03 -2.6750955462926434e+05 +9.2052622407044061e+06 
+8.6999999999999904e+00 -5.3698995769597624e-01 +7.3624101800711461e+00 -3.5207197509790422e-01 +6.8621241705581681e+00 -1.8879206227856266e+03 -2.7018212218913424e+05 +9.1576258300387207e+06 
+8.7999999999999794e+00 -5.3699025125446187e-01 +7.3623843098769548e+00 -3.4976629389534469e-01 +7.3741923600323851e+00 -1.8901113841905469e+03 -2.7235074428467971e+05 +9.0762638550327793e+06 
+8.8999999999999808e+00 -5.3699054830659931e-01 +7.3623612735110830e+00 -3.4775360323949073e-01 +7.7970558181343135e+00 -1.8857101464937730e+03 -2.7400627173982986e+05 +8.9622194467724580e+06 
+8.9999999999999805e+00 -5.3699084765615568e-01 +7.3623411110589831e+00 -3.4604552591969334e-01 +8.1289506240944291e+00 -1.8748221722183494e+03 -2.7513955507869448e+05 +8.8165357844417319e+06 
+9.0999999999999801e+00 -5.3699114810699344e-01 +7.3623238626149137e+00 -3.4465367696434157e-01 +8.3681127617925686e+00 -1.8575528544477497e+03 -2.7574144473240350e+05 +8.6402566128144059e+06 
+9.1999999999999797e+00 -5.3699144846296432e-01 +7.3623095682838136e+00 -3.4358967136056839e-01 +8.5127780751173443e+00 -1.8340075840568993e+03 -2.7580279081001849e+05 +8.4344256456659585e+06 
+9.2999999999999794e+00 -5.3699174752800061e-01 +7.3622982681782343e+00 -3.4286511726779390e-01 +8.5611823675769454e+00 -1.8042918716677934e+03 -2.7531444369991502e+05 +8.2000871306698658e+06 
+9.3999999999999808e+00 -5.3699204410600987e-01 +7.3622900024226574e+00 -3.4249161922369564e-01 +8.5115612694890803e+00 -1.7685112847792436e+03 -2.7426725328332698e+05 +7.9382855418958636e+06 
+9.4999999999999805e+00 -5.3699233700094429e-01 +7.3622848111527057e+00 -3.4248077868943000e-01 +8.3621502742233087e+00 -1.7267714426381281e+03 -2.7265206918344210e+05 +7.6500655708324723e+06 
+9.5999999999999801e+00 -5.3699262501678990e-01 +7.3622827345099502e+00 -3.4284419263069882e-01 +8.1111848859068001e+00 -1.6791780387908177e+03 -2.7045974161524948e+05 +7.3364722208444281e+06 
+9.6999999999999797e+00 -5.3699290695759117e-01 +7.3622838126522758e+00 -3.4359345340263570e-01 +7.7569003380096850e+00 -1.6258368468205733e+03 -2.6768111980151699e+05 +6.9985508446399644e+06 
+9.7999999999999794e+00 -5.3699318162737975e-01 +7.3622880857457105e+00 -3.4474014825950222e-01 +7.2975318161796157e+00 -1.5668537241079121e+03 -2.6430705323570780e+05 +6.6373471468630545e+06 
+9.8999999999999808e+00 -5.3699344783022862e-01 +7.3622955939650723e+00 -3.4629586185241779e-01 +6.7313144630807882e+00 -1.5023345696400104e+03 -2.6032839176961491e+05 +6.2539069973198352e+06 
+9.9999999999999805e+00 -5.3699370437028104e-01 +7.3623063775030246e+00 -3.4827217346200923e-01 +6.0564831311174867e+00 -1.4323853690623391e+03 -2.5573598428420373e+05 +5.8492766183314668e+06 
+1.0100000000000000e+01 -5.3699395047322984e-01 +7.3623204097622192e+00 -3.5066723623582163e-01 +5.2734170826095337e+00 -1.3572801485203076e+03 -2.5053316883962860e+05 +5.4251218113999786e+06 
