# field on trajectory
# s[mm] rx[mm] ry[mm] rz[mm] bx[T] by[T] bz[T]
0.0000000000000000e+00 +8.1529999999999987e+00 +0.0000000000000000e+00 +0.0000000000000000e+00 -3.0914680395630719e-02 -5.9268581798690023e-01 +5.9367393109139594e-03
1.0000000000000001e-01 +8.1529997168695711e+00 +0.0000000000000000e+00 +9.9999999999465586e-02 -3.0914721216429901e-02 -5.9268568751931827e-01 +5.9367762983312030e-03
2.0000000000000001e-01 +8.1529988674783738e+00 +0.0000000000000000e+00 +1.9999999999572465e-01 -3.0914756658353727e-02 -5.9268555920088783e-01 +5.9368149460284911e-03
3.0000000000000004e-01 +8.1529974518265274e+00 +0.0000000000000000e+00 +2.9999999998557070e-01 -3.0914787422850455e-02 -5.9268543263519347e-01 +5.9368551963884233e-03
4.0000000000000002e-01 +8.1529954699141527e+00 +0.0000000000000000e+00 +3.9999999996579721e-01 -3.0914814211357420e-02 -5.9268530742581105e-01 +5.9368969917949575e-03
5.0000000000000000e-01 +8.1529929217413706e+00 +0.0000000000000000e+00 +4.9999999993319766e-01 -3.0914837725303377e-02 -5.9268518317630592e-01 +5.9369402746334453e-03
5.9999999999999998e-01 +8.1529898073083000e+00 +0.0000000000000000e+00 +5.9999999988456554e-01 -3.0914858666110882e-02 -5.9268505949023875e-01 +5.9369849872906834e-03
6.9999999999999996e-01 +8.1529861266150583e+00 +0.0000000000000000e+00 +6.9999999981669436e-01 -3.0914877735198670e-02 -5.9268493597116445e-01 +5.9370310721549415e-03
7.9999999999999993e-01 +8.1529818796617644e+00 +0.0000000000000000e+00 +7.9999999972637770e-01 -3.0914895633984051e-02 -5.9268481222263747e-01 +5.9370784716160242e-03
8.9999999999999991e-01 +8.1529770664485373e+00 +0.0000000000000000e+00 +8.9999999961040900e-01 -3.0914913063885174e-02 -5.9268468784820971e-01 +5.9371271280652923e-03
9.9999999999999989e-01 +8.1529716869754942e+00 +0.0000000000000000e+00 +9.9999999946558171e-01 -3.0914930726323529e-02 -5.9268456245143586e-01 +5.9371769838957138e-03
1.0999999999999999e+00 +8.1529657412427561e+00 +0.0000000000000000e+00 +1.0999999992886895e+00 -3.0914949322726228e-02 -5.9268443563587403e-01 +5.9372279815019082e-03
1.2000000000000000e+00 +8.1529592292504436e+00 +0.0000000000000000e+00 +1.1999999990765258e+00 -3.0914969554528389e-02 -5.9268430700508767e-01 +5.9372800632801906e-03
1.3000000000000000e+00 +8.1529521509986811e+00 +0.0000000000000000e+00 +1.2999999988258839e+00 -3.0914992123175507e-02 -5.9268417616264724e-01 +5.9373331716285902e-03
1.4000000000000001e+00 +8.1529445064875929e+00 +0.0000000000000000e+00 +1.3999999985335576e+00 -3.0915017730125869e-02 -5.9268404271213326e-01 +5.9373872489469305e-03
1.5000000000000002e+00 +8.1529362957173088e+00 +0.0000000000000000e+00 +1.4999999981963403e+00 -3.0915047076852841e-02 -5.9268390625713763e-01 +5.9374422376368349e-03
1.6000000000000003e+00 +8.1529275186879566e+00 +0.0000000000000000e+00 +1.5999999978110255e+00 -3.0915080864847299e-02 -5.9268376640126541e-01 +5.9374980801017909e-03
1.7000000000000004e+00 +8.1529181753996713e+00 +0.0000000000000000e+00 +1.6999999973744067e+00 -3.0915119795619943e-02 -5.9268362274813680e-01 +5.9375547187471853e-03
1.8000000000000005e+00 +8.1529082658525915e+00 +0.0000000000000000e+00 +1.7999999968832774e+00 -3.0915164570703757e-02 -5.9268347490139028e-01 +5.9376120959803410e-03
1.9000000000000006e+00 +8.1528977900468576e+00 +0.0000000000000000e+00 +1.8999999963344312e+00 -3.0915215891656269e-02 -5.9268332246468225e-01 +5.9376701542105653e-03
2.0000000000000004e+00 +8.1528867479826168e+00 +0.0000000000000000e+00 +1.9999999957246617e+00 -3.0915274460061998e-02 -5.9268316504169194e-01 +5.9377288358491908e-03
2.1000000000000005e+00 +8.1528751396600185e+00 +0.0000000000000000e+00 +2.0999999950507622e+00 -3.0915340799181529e-02 -5.9268300254691419e-01 +5.9377881065000035e-03
2.2000000000000006e+00 +8.1528629650792190e+00 +0.0000000000000000e+00 +2.1999999943095263e+00 -3.0915414718884055e-02 -5.9268283613803985e-01 +5.9378480245294071e-03
2.3000000000000007e+00 +8.1528502242403764e+00 +0.0000000000000000e+00 +2.2999999934977478e+00 -3.0915495850689666e-02 -5.9268266728356589e-01 +5.9379086714933266e-03
2.4000000000000008e+00 +8.1528369171436541e+00 +0.0000000000000000e+00 +2.3999999926122202e+00 -3.0915583826119062e-02 -5.9268249745199719e-01 +5.9379701289462277e-03
2.5000000000000009e+00 +8.1528230437892137e+00 +0.0000000000000000e+00 +2.4999999916497369e+00 -3.0915678276692411e-02 -5.9268232811185173e-01 +5.9380324784408106e-03
2.6000000000000010e+00 +8.1528086041772170e+00 +0.0000000000000000e+00 +2.5999999906070914e+00 -3.0915778833928039e-02 -5.9268216073165625e-01 +5.9380958015276802e-03
2.7000000000000011e+00 +8.1527935983078255e+00 +0.0000000000000000e+00 +2.6999999894810771e+00 -3.0915885129341274e-02 -5.9268199677994826e-01 +5.9381601797550247e-03
2.8000000000000012e+00 +8.1527780261811955e+00 +0.0000000000000000e+00 +2.7999999882684881e+00 -3.0915996794443189e-02 -5.9268183772527572e-01 +5.9382256946682969e-03
2.9000000000000012e+00 +8.1527618877974799e+00 +0.0000000000000000e+00 +2.8999999869661175e+00 -3.0916113460739452e-02 -5.9268168503619778e-01 +5.9382924278098851e-03
3.0000000000000013e+00 +8.1527451831568243e+00 +0.0000000000000000e+00 +2.9999999855707586e+00 -3.0916234759729051e-02 -5.9268154018128427e-01 +5.9383604607187992e-03
3.1000000000000014e+00 +8.1527279122593672e+00 +0.0000000000000000e+00 +3.0999999840792056e+00 -3.0916360322903128e-02 -5.9268140462911556e-01 +5.9384298749303429e-03
3.2000000000000015e+00 +8.1527100751052384e+00 +0.0000000000000000e+00 +3.1999999824882517e+00 -3.0916489781743724e-02 -5.9268127984828300e-01 +5.9385007519757961e-03
3.3000000000000016e+00 +8.1526916716945586e+00 +0.0000000000000000e+00 +3.2999999807946905e+00 -3.0916622767722633e-02 -5.9268116730738951e-01 +5.9385731733820925e-03
3.4000000000000017e+00 +8.1526727020274343e+00 +0.0000000000000000e+00 +3.3999999789953157e+00 -3.0916758912300082e-02 -5.9268106847504831e-01 +5.9386472206714837e-03
3.5000000000000018e+00 +8.1526531661039616e+00 +0.0000000000000000e+00 +3.4999999770869206e+00 -3.0916897846923638e-02 -5.9268098481988474e-01 +5.9387229753612419e-03
3.6000000000000019e+00 +8.1526330639242222e+00 +0.0000000000000000e+00 +3.5999999750662988e+00 -3.0917039203026925e-02 -5.9268091781053467e-01 +5.9388005189633230e-03
3.7000000000000020e+00 +8.1526123954882781e+00 +0.0000000000000000e+00 +3.6999999729302440e+00 -3.0917182612028412e-02 -5.9268086891564586e-01 +5.9388799329840357e-03
3.8000000000000020e+00 +8.1525911607961774e+00 +0.0000000000000000e+00 +3.7999999706755494e+00 -3.0917327705330219e-02 -5.9268083960387719e-01 +5.9389612989237403e-03
3.9000000000000021e+00 +8.1525693598479485e+00 +0.0000000000000000e+00 +3.8999999682990092e+00 -3.0917474114316935e-02 -5.9268083134389971e-01 +5.9390446982765140e-03
4.0000000000000018e+00 +8.1525469926436003e+00 +0.0000000000000000e+00 +3.9999999657974166e+00 -3.0917621470354317e-02 -5.9268084560439527e-01 +5.9391302125298322e-03
4.1000000000000014e+00 +8.1525240591831203e+00 +0.0000000000000000e+00 +4.0999999631675648e+00 -3.0917769318565942e-02 -5.9268088334814506e-01 +5.9392179036906649e-03
4.2000000000000011e+00 +8.1525005594664730e+00 +0.0000000000000000e+00 +4.1999999604062479e+00 -3.0917916859169531e-02 -5.9268094351426537e-01 +5.9393077558674810e-03
4.3000000000000007e+00 +8.1524764934936016e+00 +0.0000000000000000e+00 +4.2999999575102592e+00 -3.0918063206151453e-02 -5.9268102453591431e-01 +5.9393997336964219e-03
4.4000000000000004e+00 +8.1524518612644297e+00 +0.0000000000000000e+00 +4.3999999544763924e+00 -3.0918207473489914e-02 -5.9268112484620006e-01 +5.9394938018159172e-03
4.5000000000000000e+00 +8.1524266627788613e+00 +0.0000000000000000e+00 +4.4999999513014401e+00 -3.0918348775154602e-02 -5.9268124287817259e-01 +5.9395899248669204e-03
4.5999999999999996e+00 +8.1524008980367864e+00 +0.0000000000000000e+00 +4.5999999479821971e+00 -3.0918486225106338e-02 -5.9268137706482582e-01 +5.9396880674931606e-03
4.6999999999999993e+00 +8.1523745670380769e+00 +0.0000000000000000e+00 +4.6999999445154561e+00 -3.0918618937296721e-02 -5.9268152583908962e-01 +5.9397881943413890e-03
4.7999999999999989e+00 +8.1523476697825910e+00 +0.0000000000000000e+00 +4.7999999408980107e+00 -3.0918746025667788e-02 -5.9268168763382922e-01 +5.9398902700616022e-03
4.8999999999999986e+00 +8.1523202062701756e+00 +0.0000000000000000e+00 +4.8999999371266547e+00 -3.0918866604151628e-02 -5.9268186088184005e-01 +5.9399942593073027e-03
4.9999999999999982e+00 +8.1522921765006675e+00 +0.0000000000000000e+00 +4.9999999331981808e+00 -3.0918979786670100e-02 -5.9268204401584534e-01 +5.9401001267357428e-03
5.0999999999999979e+00 +8.1522635804738908e+00 +0.0000000000000000e+00 +5.0999999291093836e+00 -3.0919084687134391e-02 -5.9268223546849164e-01 +5.9402078370081515e-03
5.1999999999999975e+00 +8.1522344181896642e+00 +0.0000000000000000e+00 +5.1999999248570559e+00 -3.0919180419444733e-02 -5.9268243367234630e-01 +5.9403173547899922e-03
5.2999999999999972e+00 +8.1522046896477995e+00 +0.0000000000000000e+00 +5.2999999204379913e+00 -3.0919266097490062e-02 -5.9268263705989344e-01 +5.9404286447511988e-03
5.3999999999999968e+00 +8.1521743948481031e+00 +0.0000000000000000e+00 +5.3999999158489835e+00 -3.0919340835147583e-02 -5.9268284406353122e-01 +5.9405416715664263e-03
5.4999999999999964e+00 +8.1521435337903796e+00 +0.0000000000000000e+00 +5.4999999110868254e+00 -3.0919403746282517e-02 -5.9268305311556657e-01 +5.9406563999152718e-03
5.5999999999999961e+00 +8.1521121064744300e+00 +0.0000000000000000e+00 +5.5999999061483106e+00 -3.0919453944747693e-02 -5.9268326264821369e-01 +5.9407727944825444e-03
5.6999999999999957e+00 +8.1520801129000535e+00 +0.0000000000000000e+00 +5.6999999010302327e+00 -3.0919490544383230e-02 -5.9268347109359010e-01 +5.9408908199584951e-03
5.7999999999999954e+00 +8.1520475530670531e+00 +0.0000000000000000e+00 +5.7999998957293855e+00 -3.0919512659016157e-02 -5.9268367688371204e-01 +5.9410104410390491e-03
5.8999999999999950e+00 +8.1520144269752350e+00 +0.0000000000000000e+00 +5.8999998902425617e+00 -3.0919519402460099e-02 -5.9268387845049231e-01 +5.9411316224260678e-03
5.9999999999999947e+00 +8.1519807346244058e+00 +0.0000000000000000e+00 +5.9999998845665550e+00 -3.0919509888514916e-02 -5.9268407422573621e-01 +5.9412543288275815e-03
6.0999999999999943e+00 +8.1519464760143805e+00 +0.0000000000000000e+00 +6.0999998786981591e+00 -3.0919483724519102e-02 -5.9268426297010712e-01 +5.9413785151627855e-03
6.1999999999999940e+00 +8.1519116511449798e+00 +0.0000000000000000e+00 +6.1999998726341676e+00 -3.0919442492020117e-02 -5.9268444476008519e-01 +5.9415040971733963e-03
6.2999999999999936e+00 +8.1518762600160297e+00 +0.0000000000000000e+00 +6.2999998663713734e+00 -3.0919388266121964e-02 -5.9268462000115796e-01 +5.9416309808042796e-03
6.3999999999999932e+00 +8.1518403026273649e+00 +0.0000000000000000e+00 +6.3999998599065711e+00 -3.0919323121930627e-02 -5.9268478909886535e-01 +5.9417590719978985e-03
6.4999999999999929e+00 +8.1518037789788256e+00 +0.0000000000000000e+00 +6.4999998532365524e+00 -3.0919249134554419e-02 -5.9268495245880348e-01 +5.9418882766942077e-03
6.5999999999999925e+00 +8.1517666890702571e+00 +0.0000000000000000e+00 +6.5999998463581120e+00 -3.0919168379104245e-02 -5.9268511048662653e-01 +5.9420185008305145e-03
6.6999999999999922e+00 +8.1517290329015086e+00 +0.0000000000000000e+00 +6.6999998392680427e+00 -3.0919082930693901e-02 -5.9268526358805129e-01 +5.9421496503413588e-03
6.7999999999999918e+00 +8.1516908104724362e+00 +0.0000000000000000e+00 +6.7999998319631381e+00 -3.0918994864440379e-02 -5.9268541216886039e-01 +5.9422816311583936e-03
6.8999999999999915e+00 +8.1516520217828976e+00 +0.0000000000000000e+00 +6.8999998244401919e+00 -3.0918906255464149e-02 -5.9268555663490474e-01 +5.9424143492102606e-03
6.9999999999999911e+00 +8.1516126668327562e+00 +0.0000000000000000e+00 +6.9999998166959978e+00 -3.0918819178889466e-02 -5.9268569739210664e-01 +5.9425477104224677e-03
7.0999999999999908e+00 +8.1515727456218787e+00 +0.0000000000000000e+00 +7.0999998087273486e+00 -3.0918735709844665e-02 -5.9268583484646453e-01 +5.9426816207172632e-03
7.1999999999999904e+00 +8.1515322581501355e+00 +0.0000000000000000e+00 +7.1999998005310379e+00 -3.0918657923462448e-02 -5.9268596940405482e-01 +5.9428159860135188e-03
7.2999999999999901e+00 +8.1514912044174004e+00 +0.0000000000000000e+00 +7.2999997921038595e+00 -3.0918587894880167e-02 -5.9268610147103462e-01 +5.9429507122266039e-03
7.3999999999999897e+00 +8.1514495844235473e+00 +0.0000000000000000e+00 +7.3999997834426061e+00 -3.0918527699240118e-02 -5.9268623145364763e-01 +5.9430857052682577e-03
7.4999999999999893e+00 +8.1514073981684536e+00 +0.0000000000000000e+00 +7.4999997745440714e+00 -3.0918479411689865e-02 -5.9268635975822381e-01 +5.9432208710464719e-03
7.5999999999999890e+00 +8.1513646456519968e+00 +0.0000000000000000e+00 +7.5999997654050491e+00 -3.0918445107382436e-02 -5.9268648679118530e-01 +5.9433561154653720e-03
7.6999999999999886e+00 +8.1513213268740579e+00 +0.0000000000000000e+00 +7.6999997560223328e+00 -3.0918426861476708e-02 -5.9268661295904834e-01 +5.9434913444250895e-03
7.7999999999999883e+00 +8.1512774418345177e+00 +0.0000000000000000e+00 +7.7999997463927153e+00 -3.0918426749137667e-02 -5.9268673866842725e-01 +5.9436264638216395e-03
7.8999999999999879e+00 +8.1512329905332574e+00 +0.0000000000000000e+00 +7.8999997365129904e+00 -3.0918446845536601e-02 -5.9268686432603723e-01 +5.9437613795467973e-03
7.9999999999999876e+00 +8.1511879729701580e+00 +0.0000000000000000e+00 +7.9999997263799516e+00 -3.0918489225851529e-02 -5.9268699033869732e-01 +5.9438959974879831e-03
8.0999999999999872e+00 +8.1511423891451020e+00 +0.0000000000000000e+00 +8.0999997159903927e+00 -3.0918555426447062e-02 -5.9268711722713097e-01 +5.9440302568965608e-03
8.1999999999999869e+00 +8.1510962390579689e+00 +0.0000000000000000e+00 +8.1999997053411064e+00 -3.0918644828398633e-02 -5.9268724596734290e-01 +5.9441642304969150e-03
8.2999999999999865e+00 +8.1510495227086359e+00 +0.0000000000000000e+00 +8.2999996944288856e+00 -3.0918756273967164e-02 -5.9268737764919699e-01 +5.9442980243855957e-03
8.3999999999999861e+00 +8.1510022400969788e+00 +0.0000000000000000e+00 +8.3999996832505239e+00 -3.0918888605429354e-02 -5.9268751336261505e-01 +5.9444317446631706e-03
8.4999999999999858e+00 +8.1509543912228697e+00 +0.0000000000000000e+00 +8.4999996718028168e+00 -3.0919040665078279e-02 -5.9268765419757774e-01 +5.9445654974343591e-03
8.5999999999999854e+00 +8.1509059760861771e+00 +0.0000000000000000e+00 +8.5999996600825543e+00 -3.0919211295223910e-02 -5.9268780124412579e-01 +5.9446993888081796e-03
8.6999999999999851e+00 +8.1508569946867606e+00 +0.0000000000000000e+00 +8.6999996480865320e+00 -3.0919399338193675e-02 -5.9268795559236209e-01 +5.9448335248980765e-03
8.7999999999999847e+00 +8.1508074470244729e+00 +0.0000000000000000e+00 +8.7999996358115435e+00 -3.0919603636332987e-02 -5.9268811833245394e-01 +5.9449680118220652e-03
8.8999999999999844e+00 +8.1507573330991629e+00 +0.0000000000000000e+00 +8.8999996232543808e+00 -3.0919823032005789e-02 -5.9268829055463201e-01 +5.9451029557028631e-03
8.9999999999999840e+00 +8.1507066529106655e+00 +0.0000000000000000e+00 +8.9999996104118392e+00 -3.0920056367595147e-02 -5.9268847334919428e-01 +5.9452384626680257e-03
9.0999999999999837e+00 +8.1506554064588084e+00 +0.0000000000000000e+00 +9.0999995972807106e+00 -3.0920302485503752e-02 -5.9268866780650642e-01 +5.9453746388500915e-03
9.1999999999999833e+00 +8.1506035937434067e+00 +0.0000000000000000e+00 +9.1999995838577888e+00 -3.0920560228154526e-02 -5.9268887501700307e-01 +5.9455115903867227e-03
9.2999999999999829e+00 +8.1505512147642634e+00 +0.0000000000000000e+00 +9.2999995701398674e+00 -3.0920828437991092e-02 -5.9268909607119036e-01 +5.9456494234208165e-03
9.3999999999999826e+00 +8.1504982695211705e+00 +0.0000000000000000e+00 +9.3999995561237384e+00 -3.0921105957478417e-02 -5.9268933205964536e-01 +5.9457882441006733e-03
9.4999999999999822e+00 +8.1504447580139043e+00 +0.0000000000000000e+00 +9.4999995418061971e+00 -3.0921391629103331e-02 -5.9268958407302097e-01 +5.9459281585801122e-03
9.5999999999999819e+00 +8.1503906802422250e+00 +0.0000000000000000e+00 +9.5999995271840355e+00 -3.0921684295375052e-02 -5.9268985320204248e-01 +5.9460692730186173e-03
9.6999999999999815e+00 +8.1503360362058768e+00 +0.0000000000000000e+00 +9.6999995122540472e+00 -3.0921982798825808e-02 -5.9269014053751445e-01 +5.9462116935814777e-03
9.7999999999999812e+00 +8.1502808259045860e+00 +0.0000000000000000e+00 +9.7999994970130260e+00 -3.0922285982011358e-02 -5.9269044717031738e-01 +5.9463555264399068e-03
9.8999999999999808e+00 +8.1502250493380632e+00 +0.0000000000000000e+00 +9.8999994814577637e+00 -3.0922592687511515e-02 -5.9269077419141292e-01 +5.9465008777712042e-03
9.9999999999999805e+00 +8.1501687065059958e+00 +0.0000000000000000e+00 +9.9999994655850557e+00 -3.0922901757930828e-02 -5.9269112269184276e-01 +5.9466478537588720e-03
1.0099999999999980e+01 +8.1501117974080550e+00 +0.0000000000000000e+00 +1.0099999449391694e+01 -3.0923212101897277e-02 -5.9269149327364923e-01 +5.9467965212196975e-03
1.0199999999999980e+01 +8.1500543220438857e+00 +0.0000000000000000e+00 +1.0199999432874472e+01 -3.0923522892048808e-02 -5.9269188458251432e-01 +5.9469467894798971e-03
1.0299999999999979e+01 +8.1499962804131183e+00 +0.0000000000000000e+00 +1.0299999416030182e+01 -3.0923833367013456e-02 -5.9269229477487517e-01 +5.9470985284916398e-03
1.0399999999999979e+01 +8.1499376725153621e+00 +0.0000000000000000e+00 +1.0399999398855620e+01 -3.0924142765405217e-02 -5.9269272200699796e-01 +5.9472516082067746e-03
1.0499999999999979e+01 +8.1498784983502119e+00 +0.0000000000000000e+00 +1.0499999381347576e+01 -3.0924450325823701e-02 -5.9269316443497067e-01 +5.9474058985768026e-03
1.0599999999999978e+01 +8.1498187579172452e+00 +0.0000000000000000e+00 +1.0599999363502844e+01 -3.0924755286853657e-02 -5.9269362021470040e-01 +5.9475612695528502e-03
1.0699999999999978e+01 +8.1497584512160302e+00 +0.0000000000000000e+00 +1.0699999345318219e+01 -3.0925056887064570e-02 -5.9269408750190877e-01 +5.9477175910856274e-03
1.0799999999999978e+01 +8.1496975782461210e+00 +0.0000000000000000e+00 +1.0799999326790491e+01 -3.0925354365010243e-02 -5.9269456445212620e-01 +5.9478747331254073e-03
1.0899999999999977e+01 +8.1496361390070664e+00 +0.0000000000000000e+00 +1.0899999307916456e+01 -3.0925646959228344e-02 -5.9269504922068683e-01 +5.9480325656219883e-03
1.0999999999999977e+01 +8.1495741334984029e+00 +0.0000000000000000e+00 +1.0999999288692905e+01 -3.0925933908240024e-02 -5.9269553996272606e-01 +5.9481909585246684e-03
1.1099999999999977e+01 +8.1495115617196650e+00 +0.0000000000000000e+00 +1.1099999269116632e+01 -3.0926214450549484e-02 -5.9269603483317301e-01 +5.9483497817822192e-03
1.1199999999999976e+01 +8.1494484236703819e+00 +0.0000000000000000e+00 +1.1199999249184430e+01 -3.0926487824643537e-02 -5.9269653198674821e-01 +5.9485089053428440e-03
1.1299999999999976e+01 +8.1493847193500812e+00 +0.0000000000000000e+00 +1.1299999228893093e+01 -3.0926753268991213e-02 -5.9269702957795722e-01 +5.9486681991541531e-03
1.1399999999999975e+01 +8.1493204487582886e+00 +0.0000000000000000e+00 +1.1399999208239413e+01 -3.0927010022043309e-02 -5.9269752576108714e-01 +5.9488275331631372e-03
1.1499999999999975e+01 +8.1492556118945334e+00 +0.0000000000000000e+00 +1.1499999187220181e+01 -3.0927257322231994e-02 -5.9269801869020122e-01 +5.9489867773161245e-03
1.1599999999999975e+01 +8.1491902087583465e+00 +0.0000000000000000e+00 +1.1599999165832195e+01 -3.0927494407970393e-02 -5.9269850651913392e-01 +5.9491458015587676e-03
1.1699999999999974e+01 +8.1491242393492627e+00 +0.0000000000000000e+00 +1.1699999144072244e+01 -3.0927720517652142e-02 -5.9269898740148785e-01 +5.9493044758360016e-03
1.1799999999999974e+01 +8.1490577036668270e+00 +0.0000000000000000e+00 +1.1799999121937123e+01 -3.0927934889650989e-02 -5.9269945949062641e-01 +5.9494626700920166e-03
