# field on trajectory
# s[mm] rx[mm] ry[mm] rz[mm] bx[T] by[T] bz[T]
0.0000000000000000e+00 +8.1530000000000094e+00 +0.0000000000000000e+00 +0.0000000000000000e+00 -3.1172990118345706e-02 -5.9312945776325654e-01 +5.9597345646109322e-03
1.0000000000000001e-01 +8.1529997159377707e+00 +0.0000000000000000e+00 +1.0008006405070299e-01 -3.1173212384009094e-02 -5.9312921284595588e-01 +5.9597050134632618e-03
2.0000000000000001e-01 +8.1529988637557800e+00 +0.0000000000000000e+00 +2.0016012809818201e-01 -3.1173442425937153e-02 -5.9312896060610643e-01 +5.9596763559119576e-03
2.9999999999999999e-01 +8.1529974434524792e+00 +0.0000000000000000e+00 +3.0024019213920999e-01 -3.1173678534595142e-02 -5.9312870145571384e-01 +5.9596486497765057e-03
4.0000000000000002e-01 +8.1529954550242092e+00 +0.0000000000000000e+00 +4.0032025617056399e-01 -3.1173919000461302e-02 -5.9312843580678776e-01 +5.9596219528743090e-03
5.0000000000000000e-01 +8.1529928984782600e+00 +0.0000000000000000e+00 +5.0040032018901703e-01 -3.1174162114018491e-02 -5.9312816407123614e-01 +5.9595963230199877e-03
5.9999999999999998e-01 +8.1529897738146193e+00 +0.0000000000000000e+00 +6.0048038419134497e-01 -3.1174406165759713e-02 -5.9312788666101202e-01 +5.9595718180272782e-03
6.9999999999999996e-01 +8.1529860810223909e+00 +0.0000000000000000e+00 +7.0056044817432195e-01 -3.1174649446187083e-02 -5.9312760398814446e-01 +5.9595484957097227e-03
8.0000000000000004e-01 +8.1529818201124709e+00 +0.0000000000000000e+00 +8.0064051213472498e-01 -3.1174890245794933e-02 -5.9312731646447059e-01 +5.9595264138783376e-03
9.0000000000000002e-01 +8.1529769910812302e+00 +0.0000000000000000e+00 +9.0072057606932698e-01 -3.1175126855083165e-02 -5.9312702450193067e-01 +5.9595056303450153e-03
1.0000000000000000e+00 +8.1529715939250291e+00 +0.0000000000000000e+00 +1.0008006399749001e+00 -3.1175357564548378e-02 -5.9312672851245019e-01 +5.9594862029217150e-03
1.1000000000000001e+00 +8.1529656286511507e+00 +0.0000000000000000e+00 +1.1008807038482300e+00 -3.1175580664676426e-02 -5.9312642890785072e-01 +5.9594681894199310e-03
1.2000000000000000e+00 +8.1529590952522994e+00 +0.0000000000000000e+00 +1.2009607676860801e+00 -3.1175794445951120e-02 -5.9312612610005555e-01 +5.9594516476531977e-03
1.3000000000000000e+00 +8.1529519937357708e+00 +0.0000000000000000e+00 +1.3010408314852300e+00 -3.1175997198838783e-02 -5.9312582050085372e-01 +5.9594366354350607e-03
1.3999999999999999e+00 +8.1529443240979198e+00 +0.0000000000000000e+00 +1.4011208952424601e+00 -3.1176187213796940e-02 -5.9312551252210521e-01 +5.9594232105815732e-03
1.5000000000000000e+00 +8.1529360863350995e+00 +0.0000000000000000e+00 +1.5012009589545301e+00 -3.1176362781266991e-02 -5.9312520257565404e-01 +5.9594114309107892e-03
1.6000000000000001e+00 +8.1529272804509691e+00 +0.0000000000000000e+00 +1.6012810226182299e+00 -3.1176522191668367e-02 -5.9312489107326660e-01 +5.9594013542425255e-03
1.7000000000000000e+00 +8.1529179064491508e+00 +0.0000000000000000e+00 +1.7013610862303301e+00 -3.1176663735399204e-02 -5.9312457842669108e-01 +5.9593930383993752e-03
1.8000000000000000e+00 +8.1529079643223703e+00 +0.0000000000000000e+00 +1.8014411497875999e+00 -3.1176785702838571e-02 -5.9312426504774596e-01 +5.9593865412079774e-03
1.8999999999999999e+00 +8.1528974540779000e+00 +0.0000000000000000e+00 +1.9015212132868200e+00 -3.1176886384332709e-02 -5.9312395134811202e-01 +5.9593819204973109e-03
2.0000000000000000e+00 +8.1528863757084800e+00 +0.0000000000000000e+00 +2.0016012767247702e+00 -3.1176964070207789e-02 -5.9312363773956922e-01 +5.9593792341013883e-03
2.1000000000000001e+00 +8.1528747292177304e+00 +0.0000000000000000e+00 +2.1016813400982199e+00 -3.1177017682187644e-02 -5.9312332456006212e-01 +5.9593785156152827e-03
2.2000000000000002e+00 +8.1528625146056601e+00 +0.0000000000000000e+00 +2.2017614034039301e+00 -3.1177048549376390e-02 -5.9312301186647132e-01 +5.9593797062115891e-03
2.2999999999999998e+00 +8.1528497318759001e+00 +0.0000000000000000e+00 +2.3018414666387002e+00 -3.1177058574515897e-02 -5.9312269964868869e-01 +5.9593827250403473e-03
2.3999999999999999e+00 +8.1528363810211903e+00 +0.0000000000000000e+00 +2.4019215297993002e+00 -3.1177049660357156e-02 -5.9312238789672034e-01 +5.9593874912533384e-03
2.5000000000000000e+00 +8.1528224620451493e+00 +0.0000000000000000e+00 +2.5020015928824901e+00 -3.1177023709652509e-02 -5.9312207660051330e-01 +5.9593939240022136e-03
2.6000000000000001e+00 +8.1528079749477893e+00 +0.0000000000000000e+00 +2.6020816558850601e+00 -3.1176982625163812e-02 -5.9312176575007924e-01 +5.9594019424396147e-03
2.7000000000000002e+00 +8.1527929197291105e+00 +0.0000000000000000e+00 +2.7021617188037701e+00 -3.1176928309662653e-02 -5.9312145533546767e-01 +5.9594114657187955e-03
2.7999999999999998e+00 +8.1527772963891003e+00 +0.0000000000000000e+00 +2.8022417816354102e+00 -3.1176862665932122e-02 -5.9312114534677174e-01 +5.9594224129935489e-03
2.8999999999999999e+00 +8.1527611049277802e+00 +0.0000000000000000e+00 +2.9023218443767500e+00 -3.1176787596768611e-02 -5.9312083577413011e-01 +5.9594347034181349e-03
3.0000000000000000e+00 +8.1527443453451305e+00 +0.0000000000000000e+00 +3.0024019070245598e+00 -3.1176705004983631e-02 -5.9312052660773507e-01 +5.9594482561471955e-03
3.1000000000000001e+00 +8.1527270176411495e+00 +0.0000000000000000e+00 +3.1024819695756198e+00 -3.1176616793405512e-02 -5.9312021783783231e-01 +5.9594629903356924e-03
3.2000000000000002e+00 +8.1527091218158603e+00 +0.0000000000000000e+00 +3.2025620320267101e+00 -3.1176524864881330e-02 -5.9311990945472837e-01 +5.9594788251388139e-03
3.2999999999999998e+00 +8.1526906578692397e+00 +0.0000000000000000e+00 +3.3026420943745900e+00 -3.1176431122278570e-02 -5.9311960144879350e-01 +5.9594956797119130e-03
3.3999999999999999e+00 +8.1526716258013003e+00 +0.0000000000000000e+00 +3.4027221566160502e+00 -3.1176337468487011e-02 -5.9311929381046669e-01 +5.9595134732104262e-03
3.5000000000000000e+00 +8.1526520256120403e+00 +0.0000000000000000e+00 +3.5028022187478500e+00 -3.1176245806420463e-02 -5.9311898653025952e-01 +5.9595321247898026e-03
3.6000000000000001e+00 +8.1526318572978198e+00 +0.0000000000000000e+00 +3.6028822807667802e+00 -3.1176158039020158e-02 -5.9311867959878928e-01 +5.9595515536057164e-03
3.7000000000000002e+00 +8.1526111208659096e+00 +0.0000000000000000e+00 +3.7029623426696099e+00 -3.1176076069250189e-02 -5.9311837300666681e-01 +5.9595716788128058e-03
3.7999999999999998e+00 +8.1525898163126804e+00 +0.0000000000000000e+00 +3.8030424044531101e+00 -3.1176001800108828e-02 -5.9311806674467604e-01 +5.9595924195663822e-03
3.8999999999999999e+00 +8.1525679436344909e+00 +0.0000000000000000e+00 +3.9031224661140600e+00 -3.1175937134625596e-02 -5.9311776080369061e-01 +5.9596136950214717e-03
4.0000000000000000e+00 +8.1525455028386205e+00 +0.0000000000000000e+00 +4.0032025276492398e+00 -3.1175883975845160e-02 -5.9311745517459358e-01 +5.9596354243327335e-03
4.0999999999999996e+00 +8.1525224939177896e+00 +0.0000000000000000e+00 +4.1032825890554099e+00 -3.1175843790572949e-02 -5.9311714996517328e-01 +5.9596575571494378e-03
4.2000000000000002e+00 +8.1524989168792708e+00 +0.0000000000000000e+00 +4.2033626503293604e+00 -3.1175816460065869e-02 -5.9311684570723988e-01 +5.9596801539412610e-03
4.2999999999999998e+00 +8.1524747717157897e+00 +0.0000000000000000e+00 +4.3034427114678504e+00 -3.1175801505482537e-02 -5.9311654302901573e-01 +5.9597033003451231e-03
4.4000000000000004e+00 +8.1524500584346207e+00 +0.0000000000000000e+00 +4.4035227724676700e+00 -3.1175798447949602e-02 -5.9311624255857875e-01 +5.9597270819943217e-03
4.5000000000000000e+00 +8.1524247770285001e+00 +0.0000000000000000e+00 +4.5036028333255800e+00 -3.1175806808572671e-02 -5.9311594492409336e-01 +5.9597515845207444e-03
4.5999999999999996e+00 +8.1523989275046898e+00 +0.0000000000000000e+00 +4.6036828940383696e+00 -3.1175826108421616e-02 -5.9311565075357120e-01 +5.9597768935523128e-03
4.7000000000000002e+00 +8.1523725098559208e+00 +0.0000000000000000e+00 +4.7037629546028104e+00 -3.1175855868541557e-02 -5.9311536067510429e-01 +5.9598030947151884e-03
4.7999999999999998e+00 +8.1523455240894709e+00 +0.0000000000000000e+00 +4.8038430150156701e+00 -3.1175895609938185e-02 -5.9311507531662599e-01 +5.9598302736312142e-03
4.9000000000000004e+00 +8.1523179701980606e+00 +0.0000000000000000e+00 +4.9039230752737302e+00 -3.1175944853588711e-02 -5.9311479530614220e-01 +5.9598585159201358e-03
5.0000000000000000e+00 +8.1522898481889605e+00 +0.0000000000000000e+00 +5.0040031353737602e+00 -3.1176003120427190e-02 -5.9311452127149211e-01 +5.9598879071970272e-03
5.0999999999999996e+00 +8.1522611580549000e+00 +0.0000000000000000e+00 +5.1040831953125396e+00 -3.1176069931355486e-02 -5.9311425384058325e-01 +5.9599185330745175e-03
5.2000000000000002e+00 +8.1522318997995207e+00 +0.0000000000000000e+00 +5.2041632550868497e+00 -3.1176144807230206e-02 -5.9311399364117723e-01 +5.9599504791605241e-03
5.2999999999999998e+00 +8.1522020734228100e+00 +0.0000000000000000e+00 +5.3042433146934496e+00 -3.1176227268867276e-02 -5.9311374130100913e-01 +5.9599838310592642e-03
5.4000000000000004e+00 +8.1521716789247893e+00 +0.0000000000000000e+00 +5.4043233741291203e+00 -3.1176316837038372e-02 -5.9311349744774977e-01 +5.9600186743707945e-03
5.5000000000000000e+00 +8.1521407163090807e+00 +0.0000000000000000e+00 +5.5044034333906504e+00 -3.1176413032467609e-02 -5.9311326270897702e-01 +5.9600550946905312e-03
5.5999999999999996e+00 +8.1521091855684098e+00 +0.0000000000000000e+00 +5.6044834924747899e+00 -3.1176515375835993e-02 -5.9311303771228763e-01 +5.9600931776102864e-03
5.7000000000000002e+00 +8.1520770867064094e+00 +0.0000000000000000e+00 +5.7045635513783299e+00 -3.1176623387769987e-02 -5.9311282308511792e-01 +5.9601330087162762e-03
5.7999999999999998e+00 +8.1520444197231008e+00 +0.0000000000000000e+00 +5.8046436100980499e+00 -3.1176736588846017e-02 -5.9311261945485783e-01 +5.9601746735901606e-03
5.9000000000000004e+00 +8.1520111846184609e+00 +0.0000000000000000e+00 +5.9047236686307096e+00 -3.1176854499587139e-02 -5.9311242744881865e-01 +5.9602182578085694e-03
5.9999999999999902e+00 +8.1519773813925003e+00 +0.0000000000000000e+00 +6.0048037269731003e+00 -3.1176976640469832e-02 -5.9311224769421145e-01 +5.9602638469400350e-03
6.0999999999999899e+00 +8.1519430100452208e+00 +0.0000000000000000e+00 +6.1048837851219799e+00 -3.1177102623766446e-02 -5.9311208063269005e-01 +5.9603114965125934e-03
6.1999999999999904e+00 +8.1519080705766100e+00 +0.0000000000000000e+00 +6.2049638430741396e+00 -3.1177232379975491e-02 -5.9311192606323460e-01 +5.9603611579865292e-03
6.2999999999999901e+00 +8.1518725629866804e+00 +0.0000000000000000e+00 +6.3050439008263499e+00 -3.1177365908502914e-02 -5.9311178364573525e-01 +5.9604127603019447e-03
6.3999999999999897e+00 +8.1518364872754301e+00 +0.0000000000000000e+00 +6.4051239583753699e+00 -3.1177503208791091e-02 -5.9311165304008373e-01 +5.9604662324025939e-03
6.4999999999999902e+00 +8.1517998434428591e+00 +0.0000000000000000e+00 +6.5052040157180002e+00 -3.1177644280320764e-02 -5.9311153390617066e-01 +5.9605215032360655e-03
6.5999999999999899e+00 +8.1517626314889604e+00 +0.0000000000000000e+00 +6.6052840728510001e+00 -3.1177789122612976e-02 -5.9311142590388843e-01 +5.9605785017539849e-03
6.6999999999999904e+00 +8.1517248514137499e+00 +0.0000000000000000e+00 +6.7053641297711399e+00 -3.1177937735231070e-02 -5.9311132869313077e-01 +5.9606371569122093e-03
6.7999999999999901e+00 +8.1516865032135701e+00 +0.0000000000000000e+00 +6.8054441864752100e+00 -3.1178090117784198e-02 -5.9311124193382114e-01 +5.9606973976713143e-03
6.8999999999999897e+00 +8.1516475868957095e+00 +0.0000000000000000e+00 +6.9055242429599701e+00 -3.1178246269922841e-02 -5.9311116528579622e-01 +5.9607591529955862e-03
6.9999999999999902e+00 +8.1516081024565192e+00 +0.0000000000000000e+00 +7.0056042992222096e+00 -3.1178406191350434e-02 -5.9311109840898368e-01 +5.9608223518550314e-03
7.0999999999999899e+00 +8.1515680498960101e+00 +0.0000000000000000e+00 +7.1056843552586999e+00 -3.1178569881818840e-02 -5.9311104096328338e-01 +5.9608869232243523e-03
7.1999999999999904e+00 +8.1515274292141804e+00 +0.0000000000000000e+00 +7.2057644110662000e+00 -3.1178737341131961e-02 -5.9311099260859734e-01 +5.9609527960834520e-03
7.2999999999999901e+00 +8.1514862404073902e+00 +0.0000000000000000e+00 +7.3058444666415099e+00 -3.1178908569149205e-02 -5.9311095300485983e-01 +5.9610198994179235e-03
7.3999999999999897e+00 +8.1514444834829192e+00 +0.0000000000000000e+00 +7.4059245219813796e+00 -3.1179083565781116e-02 -5.9311092181192004e-01 +5.9610881622180392e-03
7.4999999999999902e+00 +8.1514021584334806e+00 +0.0000000000000000e+00 +7.5060045770826100e+00 -3.1179262331002454e-02 -5.9311089868974809e-01 +5.9611575134810666e-03
7.5999999999999899e+00 +8.1513592652663593e+00 +0.0000000000000000e+00 +7.6060846319419504e+00 -3.1179444864841390e-02 -5.9311088329819928e-01 +5.9612278822090276e-03
7.6999999999999904e+00 +8.1513158039779192e+00 +0.0000000000000000e+00 +7.7061646865561997e+00 -3.1179631167392616e-02 -5.9311087529722117e-01 +5.9612991974110213e-03
7.7999999999999901e+00 +8.1512717745681602e+00 +0.0000000000000000e+00 +7.8062447409221098e+00 -3.1179821238812903e-02 -5.9311087434673615e-01 +5.9613713881022101e-03
7.8999999999999897e+00 +8.1512271770334301e+00 +0.0000000000000000e+00 +7.9063247950364799e+00 -3.1180015079326249e-02 -5.9311088010669999e-01 +5.9614443833046048e-03
7.9999999999999902e+00 +8.1511820113773901e+00 +0.0000000000000000e+00 +8.0064048488960609e+00 -3.1180212689182103e-02 -5.9311089223701929e-01 +5.9615181120447778e-03
8.0999999999999908e+00 +8.1511362776036496e+00 +0.0000000000000000e+00 +8.1064849024976393e+00 -3.1180413889982616e-02 -5.9311091041762498e-01 +5.9615924960301041e-03
8.1999999999999904e+00 +8.1510899757086008e+00 +0.0000000000000000e+00 +8.2065649558379903e+00 -3.1180617912914061e-02 -5.9311093439465834e-01 +5.9616674327681056e-03
8.2999999999999901e+00 +8.1510431056885899e+00 +0.0000000000000000e+00 +8.3066450089139003e+00 -3.1180823867387245e-02 -5.9311096392790574e-01 +5.9617428147744336e-03
8.3999999999999897e+00 +8.1509956675508892e+00 +0.0000000000000000e+00 +8.4067250617221205e+00 -3.1181030862800642e-02 -5.9311099877706963e-01 +5.9618185345632693e-03
8.4999999999999893e+00 +8.1509476612882299e+00 +0.0000000000000000e+00 +8.5068051142594392e+00 -3.1181238008551073e-02 -5.9311103870197568e-01 +5.9618944846493993e-03
8.5999999999999908e+00 +8.1508990869078808e+00 +0.0000000000000000e+00 +8.6068851665226305e+00 -3.1181444414020400e-02 -5.9311108346233599e-01 +5.9619705575457514e-03
8.6999999999999904e+00 +8.1508499444025801e+00 +0.0000000000000000e+00 +8.7069652185084596e+00 -3.1181649188587891e-02 -5.9311113281798533e-01 +5.9620466457657641e-03
8.7999999999999794e+00 +8.1508002337759500e+00 +0.0000000000000000e+00 +8.8070452702137203e+00 -3.1181851441618492e-02 -5.9311118652867600e-01 +5.9621226418212405e-03
8.8999999999999808e+00 +8.1507499550316407e+00 +0.0000000000000000e+00 +8.9071253216351796e+00 -3.1182050282467188e-02 -5.9311124435416518e-01 +5.9621984382231931e-03
8.9999999999999805e+00 +8.1506991081623692e+00 +0.0000000000000000e+00 +9.0072053727696098e+00 -3.1182244820483328e-02 -5.9311130605430484e-01 +5.9622739274827266e-03
9.0999999999999801e+00 +8.1506476931717806e+00 +0.0000000000000000e+00 +9.1072854236137797e+00 -3.1182434165000474e-02 -5.9311137138886483e-01 +5.9623490021091649e-03
9.1999999999999797e+00 +8.1505957100635005e+00 +0.0000000000000000e+00 +9.2073654741644795e+00 -3.1182617425340804e-02 -5.9311144011761974e-01 +5.9624235546109246e-03
9.2999999999999794e+00 +8.1505431588302599e+00 +0.0000000000000000e+00 +9.3074455244184708e+00 -3.1182793710819393e-02 -5.9311151200044121e-01 +5.9624974774963781e-03
9.3999999999999808e+00 +8.1504900394757005e+00 +0.0000000000000000e+00 +9.4075255743725297e+00 -3.1182962130734126e-02 -5.9311158679711729e-01 +5.9625706632719854e-03
9.4999999999999805e+00 +8.1504363520034495e+00 +0.0000000000000000e+00 +9.5076056240234408e+00 -3.1183121794370064e-02 -5.9311166426744444e-01 +5.9626430044431829e-03
9.5999999999999801e+00 +8.1503820964062506e+00 +0.0000000000000000e+00 +9.6076856733679694e+00 -3.1183271811003707e-02 -5.9311174417131374e-01 +5.9627143935152074e-03
9.6999999999999797e+00 +8.1503272726913600e+00 +0.0000000000000000e+00 +9.7077657224029004e+00 -3.1183411289891341e-02 -5.9311182626850634e-01 +5.9627847229909827e-03
9.7999999999999794e+00 +8.1502718808515109e+00 +0.0000000000000000e+00 +9.8078457711250007e+00 -3.1183539340281414e-02 -5.9311191031892863e-01 +5.9628538853734609e-03
9.8999999999999808e+00 +8.1502159208903304e+00 +0.0000000000000000e+00 +9.9079258195310498e+00 -3.1183655071402763e-02 -5.9311199608240706e-01 +5.9629217731634763e-03
9.9999999999999805e+00 +8.1501593928078400e+00 +0.0000000000000000e+00 +1.0008005867617801e+01 -3.1183757592627787e-02 -5.9311208331881671e-01 +5.9629882788784653e-03
1.0100000000000000e+01 +8.1501022966040200e+00 +0.0000000000000000e+00 +1.0108085915382100e+01 -3.1183846399498179e-02 -5.9311217181765041e-01 +5.9630533381597071e-03
1.0199999999999999e+01 +8.1500446322825209e+00 +0.0000000000000000e+00 +1.0208165962820599e+01 -3.1183922204498140e-02 -5.9311226146168339e-01 +5.9631170225433782e-03
1.0300000000000001e+01 +8.1499863998360507e+00 +0.0000000000000000e+00 +1.0308246009930199e+01 -3.1183985959214653e-02 -5.9311235215212743e-01 +5.9631794302645305e-03
1.0400000000000000e+01 +8.1499275992682705e+00 +0.0000000000000000e+00 +1.0408326056707599e+01 -3.1184038615211483e-02 -5.9311244379012129e-01 +5.9632406595530084e-03
1.0500000000000000e+01 +8.1498682305791608e+00 +0.0000000000000000e+00 +1.0508406103149600e+01 -3.1184081124035170e-02 -5.9311253627684968e-01 +5.9633008086345451e-03
1.0600000000000000e+01 +8.1498082937723701e+00 +0.0000000000000000e+00 +1.0608486149253000e+01 -3.1184114437211221e-02 -5.9311262951348453e-01 +5.9633599757300607e-03
1.0699999999999999e+01 +8.1497477888406102e+00 +0.0000000000000000e+00 +1.0708566195014500e+01 -3.1184139506250007e-02 -5.9311272340130272e-01 +5.9634182590567212e-03
1.0800000000000001e+01 +8.1496867157875403e+00 +0.0000000000000000e+00 +1.0808646240430900e+01 -3.1184157282636665e-02 -5.9311281784151071e-01 +5.9634757568260473e-03
1.0900000000000000e+01 +8.1496250746131391e+00 +0.0000000000000000e+00 +1.0908726285499000e+01 -3.1184168717837028e-02 -5.9311291273536193e-01 +5.9635325672449989e-03
1.1000000000000000e+01 +8.1495628653174208e+00 +0.0000000000000000e+00 +1.1008806330215601e+01 -3.1184174763295398e-02 -5.9311300798412792e-01 +5.9635887885155442e-03
1.1100000000000000e+01 +8.1495000879040198e+00 +0.0000000000000000e+00 +1.1108886374577500e+01 -3.1184176370432505e-02 -5.9311310348906987e-01 +5.9636445188342617e-03
1.1199999999999999e+01 +8.1494367423620098e+00 +0.0000000000000000e+00 +1.1208966418581401e+01 -3.1184174490652992e-02 -5.9311319915158522e-01 +5.9636998563937210e-03
1.1300000000000001e+01 +8.1493728287059604e+00 +0.0000000000000000e+00 +1.1309046462224000e+01 -3.1184170075327259e-02 -5.9311329487288489e-01 +5.9637548993790581e-03
1.1400000000000000e+01 +8.1493083469249505e+00 +0.0000000000000000e+00 +1.1409126505502300e+01 -3.1184164075813359e-02 -5.9311339055440604e-01 +5.9638097459720867e-03
1.1500000000000000e+01 +8.1492432970226201e+00 +0.0000000000000000e+00 +1.1509206548412800e+01 -3.1184157443438918e-02 -5.9311348609748815e-01 +5.9638644943478510e-03
1.1600000000000000e+01 +8.1491776789989707e+00 +0.0000000000000000e+00 +1.1609286590952600e+01 -3.1184151129508526e-02 -5.9311358140352044e-01 +5.9639192426760293e-03
1.1699999999999999e+01 +8.1491114928576298e+00 +0.0000000000000000e+00 +1.1709366633118099e+01 -3.1184146085300114e-02 -5.9311367637388379e-01 +5.9639740891202185e-03
1.1800000000000001e+01 +8.1490447385876905e+00 +0.0000000000000000e+00 +1.1809446674906400e+01 -3.1184143262072386e-02 -5.9311377091009931e-01 +5.9640291318393190e-03
