# field on trajectory
# s[mm] rx[mm] ry[mm] rz[mm] bx[T] by[T] bz[T]
0.0000000000000000e+00 +8.1529999999999987e+00 +0.0000000000000000e+00 +0.0000000000000000e+00 -3.1061577908977799e-02 -5.9283002682817210e-01 +5.9106006354188185e-03
1.0000000000000001e-01 +8.1529997168006769e+00 +0.0000000000000000e+00 +9.9999999999465322e-02 -3.1061767094051031e-02 -5.9282992106700982e-01 +5.9105985015005507e-03
2.0000000000000001e-01 +8.1529988672027827e+00 +0.0000000000000000e+00 +1.9999999999572257e-01 -3.1061950502204047e-02 -5.9282979975493277e-01 +5.9105951830636973e-03
3.0000000000000004e-01 +8.1529974512064314e+00 +0.0000000000000000e+00 +2.9999999998556365e-01 -3.1062128358700005e-02 -5.9282966503000778e-01 +5.9105909215782350e-03
4.0000000000000002e-01 +8.1529954688117527e+00 +0.0000000000000000e+00 +3.9999999996578051e-01 -3.1062300888813971e-02 -5.9282951903029946e-01 +5.9105859585126411e-03
5.0000000000000000e-01 +8.1529929200188853e+00 +0.0000000000000000e+00 +4.9999999993316513e-01 -3.1062468317830425e-02 -5.9282936389387075e-01 +5.9105805353340327e-03
5.9999999999999998e-01 +8.1529898048279765e+00 +0.0000000000000000e+00 +5.9999999988450936e-01 -3.1062630871040581e-02 -5.9282920175877940e-01 +5.9105748935082501e-03
6.9999999999999996e-01 +8.1529861232391827e+00 +0.0000000000000000e+00 +6.9999999981660521e-01 -3.1062788773739948e-02 -5.9282903476307913e-01 +5.9105692744999844e-03
7.9999999999999993e-01 +8.1529818752526619e+00 +0.0000000000000000e+00 +7.9999999972624458e-01 -3.1062942251225668e-02 -5.9282886504481702e-01 +5.9105639197728748e-03
8.9999999999999991e-01 +8.1529770608685759e+00 +0.0000000000000000e+00 +8.9999999961021948e-01 -3.1063091528793940e-02 -5.9282869474203148e-01 +5.9105590707896156e-03
9.9999999999999989e-01 +8.1529716800870897e+00 +0.0000000000000000e+00 +9.9999999946532170e-01 -3.1063236831737517e-02 -5.9282852599275349e-01 +5.9105549690120851e-03
1.0999999999999999e+00 +8.1529657329083633e+00 +0.0000000000000000e+00 +1.0999999992883434e+00 -3.1063378385343104e-02 -5.9282836093500302e-01 +5.9105518559014313e-03
1.2000000000000000e+00 +8.1529592193325531e+00 +0.0000000000000000e+00 +1.1999999990760764e+00 -3.1063516414888755e-02 -5.9282820170678863e-01 +5.9105499729181932e-03
1.3000000000000000e+00 +8.1529521393598134e+00 +0.0000000000000000e+00 +1.2999999988253126e+00 -3.1063651145641392e-02 -5.9282805044610687e-01 +5.9105495615224164e-03
1.4000000000000001e+00 +8.1529444929902866e+00 +0.0000000000000000e+00 +1.3999999985328440e+00 -3.1063782802854115e-02 -5.9282790929093965e-01 +5.9105508631737483e-03
1.5000000000000002e+00 +8.1529362802241092e+00 +0.0000000000000000e+00 +1.4999999981954626e+00 -3.1063911611763740e-02 -5.9282778037925421e-01 +5.9105541193315483e-03
1.6000000000000003e+00 +8.1529275010614040e+00 +0.0000000000000000e+00 +1.5999999978099604e+00 -3.1064037797588182e-02 -5.9282766584900137e-01 +5.9105595714550162e-03
1.7000000000000004e+00 +8.1529181555022809e+00 +0.0000000000000000e+00 +1.6999999973731292e+00 -3.1064161585523872e-02 -5.9282756783811463e-01 +5.9105674610032792e-03
1.8000000000000005e+00 +8.1529082435468325e+00 +0.0000000000000000e+00 +1.7999999968817613e+00 -3.1064283200743215e-02 -5.9282748848450773e-01 +5.9105780294355093e-03
1.9000000000000006e+00 +8.1528977651951369e+00 +0.0000000000000000e+00 +1.8999999963326484e+00 -3.1064402868392026e-02 -5.9282742992607573e-01 +5.9105915182110381e-03
2.0000000000000004e+00 +8.1528867204472490e+00 +0.0000000000000000e+00 +1.9999999957225825e+00 -3.1064520813586915e-02 -5.9282739430069098e-01 +5.9106081687894567e-03
2.1000000000000005e+00 +8.1528751093032028e+00 +0.0000000000000000e+00 +2.0999999950483552e+00 -3.1064637290520496e-02 -5.9282738316881167e-01 +5.9106281589170247e-03
2.2000000000000006e+00 +8.1528629317630088e+00 +0.0000000000000000e+00 +2.1999999943067592e+00 -3.1064752669793343e-02 -5.9282739578131083e-01 +5.9106514114860035e-03
2.3000000000000007e+00 +8.1528501878266564e+00 +0.0000000000000000e+00 +2.2999999934945858e+00 -3.1064867351110331e-02 -5.9282743081167433e-01 +5.9106777856766423e-03
2.4000000000000008e+00 +8.1528368774941136e+00 +0.0000000000000000e+00 +2.3999999926086275e+00 -3.1064981734176857e-02 -5.9282748693339959e-01 +5.9107071406712570e-03
2.5000000000000009e+00 +8.1528230007653253e+00 +0.0000000000000000e+00 +2.4999999916456757e+00 -3.1065096218700447e-02 -5.9282756281999671e-01 +5.9107393356544590e-03
2.6000000000000010e+00 +8.1528085576402205e+00 +0.0000000000000000e+00 +2.5999999906025226e+00 -3.1065211204392106e-02 -5.9282765714499175e-01 +5.9107742298134111e-03
2.7000000000000011e+00 +8.1527935481187104e+00 +0.0000000000000000e+00 +2.6999999894759603e+00 -3.1065327090967754e-02 -5.9282776858192943e-01 +5.9108116823380682e-03
2.8000000000000012e+00 +8.1527779722006883e+00 +0.0000000000000000e+00 +2.7999999882627806e+00 -3.1065444278149681e-02 -5.9282789580437434e-01 +5.9108515524214159e-03
2.9000000000000012e+00 +8.1527618298860318e+00 +0.0000000000000000e+00 +2.8999999869597755e+00 -3.1065563165667977e-02 -5.9282803748591484e-01 +5.9108936992597200e-03
3.0000000000000013e+00 +8.1527451211746094e+00 +0.0000000000000000e+00 +2.9999999855637367e+00 -3.1065684153261993e-02 -5.9282819230016492e-01 +5.9109379820527774e-03
3.1000000000000014e+00 +8.1527278460662718e+00 +0.0000000000000000e+00 +3.0999999840714563e+00 -3.1065807640681720e-02 -5.9282835892076569e-01 +5.9109842600041504e-03
3.2000000000000015e+00 +8.1527100045608609e+00 +0.0000000000000000e+00 +3.1999999824797261e+00 -3.1065934027689281e-02 -5.9282853602138996e-01 +5.9110323923214202e-03
3.3000000000000016e+00 +8.1526915966582081e+00 +0.0000000000000000e+00 +3.2999999807853380e+00 -3.1066063714060337e-02 -5.9282872227574268e-01 +5.9110822382164229e-03
3.4000000000000017e+00 +8.1526726223581356e+00 +0.0000000000000000e+00 +3.3999999789850839e+00 -3.1066197099585552e-02 -5.9282891635756463e-01 +5.9111336569055055e-03
3.5000000000000018e+00 +8.1526530816604588e+00 +0.0000000000000000e+00 +3.4999999770757557e+00 -3.1066334584071965e-02 -5.9282911694063389e-01 +5.9111865076097569e-03
3.6000000000000019e+00 +8.1526329745649875e+00 +0.0000000000000000e+00 +3.5999999750541454e+00 -3.1066476567344521e-02 -5.9282932269876942e-01 +5.9112406495552645e-03
3.7000000000000020e+00 +8.1526123010715246e+00 +0.0000000000000000e+00 +3.6999999729170452e+00 -3.1066623449247422e-02 -5.9282953230583291e-01 +5.9112959419733609e-03
3.8000000000000020e+00 +8.1525910611798711e+00 +0.0000000000000000e+00 +3.7999999706612466e+00 -3.1066775629645594e-02 -5.9282974443573078e-01 +5.9113522441008480e-03
3.9000000000000021e+00 +8.1525692548898263e+00 +0.0000000000000000e+00 +3.8999999682835416e+00 -3.1066933508426160e-02 -5.9282995776241754e-01 +5.9114094151802733e-03
4.0000000000000018e+00 +8.1525468822011860e+00 +0.0000000000000000e+00 +3.9999999657807219e+00 -3.1067097485499795e-02 -5.9283017095989732e-01 +5.9114673144601473e-03
4.1000000000000014e+00 +8.1525239431137475e+00 +0.0000000000000000e+00 +4.0999999631495792e+00 -3.1067267748552955e-02 -5.9283038297205415e-01 +5.9115258172045904e-03
4.2000000000000011e+00 +8.1525004376273102e+00 +0.0000000000000000e+00 +4.1999999603869060e+00 -3.1067443636285118e-02 -5.9283059382211734e-01 +5.9115848627190031e-03
4.3000000000000007e+00 +8.1524763657416717e+00 +0.0000000000000000e+00 +4.2999999574894936e+00 -3.1067624275130632e-02 -5.9283080380315523e-01 +5.9116444063170414e-03
4.4000000000000004e+00 +8.1524517274566328e+00 +0.0000000000000000e+00 +4.3999999544541346e+00 -3.1067808791503317e-02 -5.9283101320824327e-01 +5.9117044033102474e-03
4.5000000000000000e+00 +8.1524265227719948e+00 +0.0000000000000000e+00 +4.4999999512776201e+00 -3.1067996311795187e-02 -5.9283122233046426e-01 +5.9117648090078103e-03
4.5999999999999996e+00 +8.1524007516875585e+00 +0.0000000000000000e+00 +4.5999999479567419e+00 -3.1068185962375077e-02 -5.9283143146290762e-01 +5.9118255787162918e-03
4.6999999999999993e+00 +8.1523744142031234e+00 +0.0000000000000000e+00 +4.6999999444882929e+00 -3.1068376869587359e-02 -5.9283164089866824e-01 +5.9118866677393862e-03
4.7999999999999989e+00 +8.1523475103184921e+00 +0.0000000000000000e+00 +4.7999999408690641e+00 -3.1068568159750582e-02 -5.9283185093084623e-01 +5.9119480313776420e-03
4.8999999999999986e+00 +8.1523200400334641e+00 +0.0000000000000000e+00 +4.8999999370958474e+00 -3.1068758959156173e-02 -5.9283206185254889e-01 +5.9120096249282248e-03
4.9999999999999982e+00 +8.1522920033478385e+00 +0.0000000000000000e+00 +4.9999999331654346e+00 -3.1068948394067011e-02 -5.9283227395688520e-01 +5.9120714036846392e-03
5.0999999999999979e+00 +8.1522634002614129e+00 +0.0000000000000000e+00 +5.0999999290746176e+00 -3.1069135590716276e-02 -5.9283248753697060e-01 +5.9121333229364909e-03
5.1999999999999975e+00 +8.1522342307739848e+00 +0.0000000000000000e+00 +5.1999999248201885e+00 -3.1069319675305920e-02 -5.9283270288592327e-01 +5.9121953379692050e-03
5.2999999999999972e+00 +8.1522044948853498e+00 +0.0000000000000000e+00 +5.2999999203989390e+00 -3.1069499774005482e-02 -5.9283292029686441e-01 +5.9122574040637865e-03
5.3999999999999968e+00 +8.1521741925953002e+00 +0.0000000000000000e+00 +5.3999999158076610e+00 -3.1069675012950704e-02 -5.9283314006291943e-01 +5.9123194764965610e-03
5.4999999999999964e+00 +8.1521433239036281e+00 +0.0000000000000000e+00 +5.4999999110431466e+00 -3.1069844518242150e-02 -5.9283336247721397e-01 +5.9123815105389006e-03
5.5999999999999961e+00 +8.1521118888101221e+00 +0.0000000000000000e+00 +5.5999999061021875e+00 -3.1070007415944029e-02 -5.9283358783287754e-01 +5.9124434614569888e-03
5.6999999999999957e+00 +8.1520798873145672e+00 +0.0000000000000000e+00 +5.6999999009815747e+00 -3.1070162832082665e-02 -5.9283381642304001e-01 +5.9125052845115430e-03
5.7999999999999954e+00 +8.1520473194167451e+00 +0.0000000000000000e+00 +5.7999998956781011e+00 -3.1070309892645323e-02 -5.9283404854083166e-01 +5.9125669349575595e-03
5.8999999999999950e+00 +8.1520141851164354e+00 +0.0000000000000000e+00 +5.8999998901885577e+00 -3.1070447723578847e-02 -5.9283428447938480e-01 +5.9126283680440732e-03
5.9999999999999947e+00 +8.1519804844134143e+00 +0.0000000000000000e+00 +5.9999998845097373e+00 -3.1070575450788264e-02 -5.9283452453183061e-01 +5.9126895390138748e-03
6.0999999999999943e+00 +8.1519462173074544e+00 +0.0000000000000000e+00 +6.0999998786384309e+00 -3.1070692562359548e-02 -5.9283476899743592e-01 +5.9127504330105758e-03
6.1999999999999940e+00 +8.1519113837983213e+00 +0.0000000000000000e+00 +6.1999998725714303e+00 -3.1070799995260027e-02 -5.9283501819999418e-01 +5.9128111548035194e-03
6.2999999999999936e+00 +8.1518759838857804e+00 +0.0000000000000000e+00 +6.2999998663055274e+00 -3.1070899048706972e-02 -5.9283527246939460e-01 +5.9128718390705536e-03
6.3999999999999932e+00 +8.1518400175695884e+00 +0.0000000000000000e+00 +6.3999998598375143e+00 -3.1070991021948807e-02 -5.9283553213547924e-01 +5.9129326204912912e-03
6.4999999999999929e+00 +8.1518034848494985e+00 +0.0000000000000000e+00 +6.4999998531641818e+00 -3.1071077214266784e-02 -5.9283579752804116e-01 +5.9129936337471928e-03
6.5999999999999925e+00 +8.1517663857252582e+00 +0.0000000000000000e+00 +6.5999998462823228e+00 -3.1071158924976652e-02 -5.9283606897682339e-01 +5.9130550135216720e-03
6.6999999999999922e+00 +8.1517287201966084e+00 +0.0000000000000000e+00 +6.6999998391887283e+00 -3.1071237453430316e-02 -5.9283634681151498e-01 +5.9131168945001679e-03
6.7999999999999918e+00 +8.1516904882632861e+00 +0.0000000000000000e+00 +6.7999998318801911e+00 -3.1071314099017578e-02 -5.9283663136174991e-01 +5.9131794113702427e-03
6.8999999999999915e+00 +8.1516516899250195e+00 +0.0000000000000000e+00 +6.8999998243535021e+00 -3.1071390161167729e-02 -5.9283692295710533e-01 +5.9132426988216698e-03
6.9999999999999911e+00 +8.1516123251815333e+00 +0.0000000000000000e+00 +6.9999998166054533e+00 -3.1071466939351294e-02 -5.9283722192709831e-01 +5.9133068915465225e-03
7.0999999999999908e+00 +8.1515723940325415e+00 +0.0000000000000000e+00 +7.0999998086328358e+00 -3.1071545733081678e-02 -5.9283752860118410e-01 +5.9133721242392570e-03
7.1999999999999904e+00 +8.1515318964777528e+00 +0.0000000000000000e+00 +7.1999998004324421e+00 -3.1071627841916857e-02 -5.9283784330875355e-01 +5.9134385315968065e-03
7.2999999999999901e+00 +8.1514908325168669e+00 +0.0000000000000000e+00 +7.2999997920010635e+00 -3.1071714565461039e-02 -5.9283816637913256e-01 +5.9135062483186718e-03
7.3999999999999897e+00 +8.1514492021495766e+00 +0.0000000000000000e+00 +7.3999997833354918e+00 -3.1071807203366376e-02 -5.9283849814157807e-01 +5.9135754091070043e-03
7.4999999999999893e+00 +8.1514070053755674e+00 +0.0000000000000000e+00 +7.4999997744325189e+00 -3.1071907055334580e-02 -5.9283883892527611e-01 +5.9136461486666925e-03
7.5999999999999890e+00 +8.1513642421945143e+00 +0.0000000000000000e+00 +7.5999997652889366e+00 -3.1072015421118673e-02 -5.9283918905934019e-01 +5.9137186017054616e-03
7.6999999999999886e+00 +8.1513209126060850e+00 +0.0000000000000000e+00 +7.6999997559015361e+00 -3.1072133600524604e-02 -5.9283954887280987e-01 +5.9137929029339517e-03
7.7999999999999883e+00 +8.1512770166099369e+00 +0.0000000000000000e+00 +7.7999997462671091e+00 -3.1072262893412961e-02 -5.9283991869464692e-01 +5.9138691870658051e-03
7.8999999999999879e+00 +8.1512325542057162e+00 +0.0000000000000000e+00 +7.8999997363824477e+00 -3.1072404599700655e-02 -5.9284029885373390e-01 +5.9139475888177681e-03
7.9999999999999876e+00 +8.1511875253930626e+00 +0.0000000000000000e+00 +7.9999997262443436e+00 -3.1072560019362528e-02 -5.9284068967887193e-01 +5.9140282429097565e-03
8.0999999999999872e+00 +8.1511419301716046e+00 +0.0000000000000000e+00 +8.0999997158495880e+00 -3.1072730114211734e-02 -5.9284109143782637e-01 +5.9141112520137741e-03
8.1999999999999869e+00 +8.1510957685409586e+00 +0.0000000000000000e+00 +8.1999997051949727e+00 -3.1072914493211045e-02 -5.9284150415449954e-01 +5.9141965905982171e-03
8.2999999999999865e+00 +8.1510490405007321e+00 +0.0000000000000000e+00 +8.2999996942772896e+00 -3.1073112427117546e-02 -5.9284192779186173e-01 +5.9142842010801106e-03
8.3999999999999861e+00 +8.1510017460505217e+00 +0.0000000000000000e+00 +8.3999996830933306e+00 -3.1073323186706230e-02 -5.9284236231291565e-01 +5.9143740258765223e-03
8.4999999999999858e+00 +8.1509538851899155e+00 +0.0000000000000000e+00 +8.4999996716398858e+00 -3.1073546042770274e-02 -5.9284280768069730e-01 +5.9144660074045728e-03
8.5999999999999854e+00 +8.1509054579184870e+00 +0.0000000000000000e+00 +8.5999996599137489e+00 -3.1073780266121342e-02 -5.9284326385827890e-01 +5.9145600880814017e-03
8.6999999999999851e+00 +8.1508564642358028e+00 +0.0000000000000000e+00 +8.6999996479117101e+00 -3.1074025127589888e-02 -5.9284373080876862e-01 +5.9146562103241668e-03
8.7999999999999847e+00 +8.1508069041414188e+00 +0.0000000000000000e+00 +8.7999996356305612e+00 -3.1074279898025407e-02 -5.9284420849531283e-01 +5.9147543165500218e-03
8.8999999999999844e+00 +8.1507567776348804e+00 +0.0000000000000000e+00 +8.8999996230670941e+00 -3.1074543848296787e-02 -5.9284469688109775e-01 +5.9148543491761123e-03
8.9999999999999840e+00 +8.1507060847157220e+00 +0.0000000000000000e+00 +8.9999996102180990e+00 -3.1074816249292564e-02 -5.9284519592935092e-01 +5.9149562506195527e-03
9.0999999999999837e+00 +8.1506548253834694e+00 +0.0000000000000000e+00 +9.0999995970803695e+00 -3.1075096371921209e-02 -5.9284570560334104e-01 +5.9150599632974265e-03
9.1999999999999833e+00 +8.1506029996376359e+00 +0.0000000000000000e+00 +9.1999995836506958e+00 -3.1075383487111419e-02 -5.9284622586638136e-01 +5.9151654296267474e-03
9.2999999999999829e+00 +8.1505506074777276e+00 +0.0000000000000000e+00 +9.2999995699258697e+00 -3.1075676865812460e-02 -5.9284675668183096e-01 +5.9152725920244851e-03
9.3999999999999826e+00 +8.1504976489032384e+00 +0.0000000000000000e+00 +9.3999995559026814e+00 -3.1075975778994375e-02 -5.9284729801309477e-01 +5.9153813929075120e-03
9.4999999999999822e+00 +8.1504441239136511e+00 +0.0000000000000000e+00 +9.4999995415779246e+00 -3.1076279497648306e-02 -5.9284784982362615e-01 +5.9154917746926132e-03
9.5999999999999819e+00 +8.1503900325084420e+00 +0.0000000000000000e+00 +9.5999995269483893e+00 -3.1076587292786815e-02 -5.9284841207692740e-01 +5.9156036797964693e-03
9.6999999999999815e+00 +8.1503353746870761e+00 +0.0000000000000000e+00 +9.6999995120108675e+00 -3.1076898435444110e-02 -5.9284898473655268e-01 +5.9157170506356398e-03
9.7999999999999812e+00 +8.1502801504490066e+00 +0.0000000000000000e+00 +9.7999994967621511e+00 -3.1077212196676411e-02 -5.9284956776610809e-01 +5.9158318296265531e-03
9.8999999999999808e+00 +8.1502243597936790e+00 +0.0000000000000000e+00 +9.8999994811990302e+00 -3.1077527847562118e-02 -5.9285016112925348e-01 +5.9159479591854875e-03
9.9999999999999805e+00 +8.1501680027205285e+00 +0.0000000000000000e+00 +9.9999994653182966e+00 -3.1077844659202249e-02 -5.9285076478970367e-01 +5.9160653817285679e-03
1.0099999999999980e+01 +8.1501110792289797e+00 +0.0000000000000000e+00 +1.0099999449116742e+01 -3.1078161925399809e-02 -5.9285137850695702e-01 +5.9161840453229673e-03
1.0199999999999980e+01 +8.1500535893184480e+00 +0.0000000000000000e+00 +1.0199999432591158e+01 -3.1078479030670316e-02 -5.9285200122344606e-01 +5.9163039206379881e-03
1.0299999999999979e+01 +8.1499955329883402e+00 +0.0000000000000000e+00 +1.0299999415738336e+01 -3.1078795382151980e-02 -5.9285263167734270e-01 +5.9164249839858806e-03
1.0399999999999979e+01 +8.1499369102380577e+00 +0.0000000000000000e+00 +1.0399999398555066e+01 -3.1079110386916690e-02 -5.9285326860683185e-01 +5.9165472116694887e-03
1.0499999999999979e+01 +8.1498777210669910e+00 +0.0000000000000000e+00 +1.0499999381038140e+01 -3.1079423451968333e-02 -5.9285391075011595e-01 +5.9166705799820222e-03
1.0599999999999978e+01 +8.1498179654745311e+00 +0.0000000000000000e+00 +1.0599999363184351e+01 -3.1079733984240802e-02 -5.9285455684541233e-01 +5.9167950652068060e-03
1.0699999999999978e+01 +8.1497576434600614e+00 +0.0000000000000000e+00 +1.0699999344990488e+01 -3.1080041390596277e-02 -5.9285520563095373e-01 +5.9169206436170685e-03
1.0799999999999978e+01 +8.1496967550229655e+00 +0.0000000000000000e+00 +1.0799999326453344e+01 -3.1080345077823351e-02 -5.9285585584499045e-01 +5.9170472914756977e-03
1.0899999999999977e+01 +8.1496353001626218e+00 +0.0000000000000000e+00 +1.0899999307569709e+01 -3.1080644452635184e-02 -5.9285650622578923e-01 +5.9171749850350187e-03
1.0999999999999977e+01 +8.1495732788784139e+00 +0.0000000000000000e+00 +1.0999999288336376e+01 -3.1080938921667720e-02 -5.9285715551163320e-01 +5.9173037005365494e-03
1.1099999999999977e+01 +8.1495106911697217e+00 +0.0000000000000000e+00 +1.1099999268750134e+01 -3.1081227891477842e-02 -5.9285780244082409e-01 +5.9174334142107887e-03
1.1199999999999976e+01 +8.1494475370359289e+00 +0.0000000000000000e+00 +1.1199999248807774e+01 -3.1081510768541504e-02 -5.9285844575168090e-01 +5.9175641022769631e-03
1.1299999999999976e+01 +8.1493838164764245e+00 +0.0000000000000000e+00 +1.1299999228506090e+01 -3.1081786959252011e-02 -5.9285908418254041e-01 +5.9176957409428198e-03
1.1399999999999975e+01 +8.1493195294905991e+00 +0.0000000000000000e+00 +1.1399999207841871e+01 -3.1082055869918059e-02 -5.9285971647175861e-01 +5.9178283064043697e-03
1.1499999999999975e+01 +8.1492546760778524e+00 +0.0000000000000000e+00 +1.1499999186811909e+01 -3.1082316906762025e-02 -5.9286034135771015e-01 +5.9179617748456826e-03
1.1599999999999975e+01 +8.1491892562375874e+00 +0.0000000000000000e+00 +1.1599999165412996e+01 -3.1082569475918091e-02 -5.9286095757878854e-01 +5.9180961224386350e-03
1.1699999999999974e+01 +8.1491232699692198e+00 +0.0000000000000000e+00 +1.1699999143641922e+01 -3.1082812983430429e-02 -5.9286156387340738e-01 +5.9182313253426906e-03
1.1799999999999974e+01 +8.1490567172721722e+00 +0.0000000000000000e+00 +1.1799999121495478e+01 -3.1083046835251361e-02 -5.9286215897999950e-01 +5.9183673597046687e-03
