# multipoles
# s[mm] polynom_b[n=0][T/m^n] polynom_b[n=1][T/m^n] polynom_b[n=2][T/m^n] polynom_b[n=3][T/m^n] polynom_b[n=4][T/m^n] polynom_b[n=5][T/m^n] polynom_b[n=6][T/m^n] 
+0.0000000000000000e+00 -5.9478641276109001e-01 +8.1192035499053734e+00 -3.3447732614217973e-01 +2.2503543808663224e+01 +3.5637285561578565e+03 -2.9350525581601431e+05 -2.3213934332502175e+07 
+1.0000000000000001e-01 -5.9478621857881664e-01 +8.1191908793609784e+00 -3.4105750822145847e-01 +2.3124502058059580e+01 +3.6652095446560679e+03 -2.9734317579416471e+05 -2.3616766113096457e+07 
+2.0000000000000001e-01 -5.9478602448523110e-01 +8.1191805908018626e+00 -3.4793732075281558e-01 +2.3712191087890709e+01 +3.7706701003975818e+03 -3.0106869544045278e+05 -2.4030061673717018e+07 
+3.0000000000000004e-01 -5.9478583097927096e-01 +8.1191726521084693e+00 -3.5510680233169334e-01 +2.4264192068201165e+01 +3.8801282900513293e+03 -3.0466316387623228e+05 -2.4454530652680393e+07 
+4.0000000000000002e-01 -5.9478563855986766e-01 +8.1191670311553956e+00 -3.6255599354605977e-01 +2.4778086330230096e+01 +3.9936022272459395e+03 -3.0810793119906506e+05 -2.4890882933659002e+07 
+5.0000000000000000e-01 -5.9478544772595343e-01 +8.1191636958284246e+00 -3.7027493498258884e-01 +2.5251454882519518e+01 +4.1111100252692731e+03 -3.1138434569524409e+05 -2.5339828395050999e+07 
+5.9999999999999998e-01 -5.9478525897649082e-01 +8.1191626140082231e+00 -3.7825366393363696e-01 +2.5681878867896724e+01 +4.2326697411878404e+03 -3.1447375644435297e+05 -2.5802076665535185e+07 
+6.9999999999999996e-01 -5.9478507281043014e-01 +8.1191637535803913e+00 -3.8648221902969904e-01 +2.6066939282489873e+01 +4.3582994567585320e+03 -3.1735751170395495e+05 -2.6278337489282217e+07 
+7.9999999999999993e-01 -5.9478488972674615e-01 +8.1191670824295219e+00 -3.9495063680469117e-01 +2.6404217136491834e+01 +4.4880172222765159e+03 -3.2001695980532194e+05 -2.6769320484750729e+07 
+8.9999999999999991e-01 -5.9478471022441226e-01 +8.1191725684430569e+00 -4.0364895340611689e-01 +2.6691293349533122e+01 +4.6218410800763022e+03 -3.2243344855444797e+05 -2.7275735233719289e+07 
+9.9999999999999989e-01 -5.9478453480242410e-01 +8.1191801795079304e+00 -4.1256720270288394e-01 +2.6925748829049560e+01 +4.7597890351153428e+03 -3.2458832563246472e+05 -2.7798291159769710e+07 
+1.0999999999999999e+00 -5.9478436395977985e-01 +8.1191898835129663e+00 -4.2169541784176129e-01 +2.7105164410835329e+01 +4.9018790793934186e+03 -3.2646293825815065e+05 -2.8337697631924961e+07 
+1.2000000000000000e+00 -5.9478419819549844e-01 +8.1192016483434291e+00 -4.3102362934249588e-01 +2.7227121022464150e+01 +5.0481291581510759e+03 -3.2803863415646483e+05 -2.8894663810740285e+07 
+1.3000000000000000e+00 -5.9478403800857693e-01 +8.1192154418936209e+00 -4.4054187034077080e-01 +2.7289199279640563e+01 +5.1985572713030188e+03 -3.2929675908752379e+05 -2.9469899138639562e+07 
+1.4000000000000001e+00 -5.9478388389807457e-01 +8.1192312320449744e+00 -4.5024016599747813e-01 +2.7288980160163920e+01 +5.3531812680495304e+03 -3.3021866087136063e+05 -3.0064112349299908e+07 
+1.5000000000000002e+00 -5.9478373636300408e-01 +8.1192489866910815e+00 -4.6010854608588736e-01 +2.7224044260974321e+01 +5.5120190856730205e+03 -3.3078568500642298e+05 -3.0678012608692888e+07 
+1.6000000000000003e+00 -5.9478359590244845e-01 +8.1192686737157302e+00 -4.7013703243882632e-01 +2.7091972421143833e+01 +5.6750885186185114e+03 -3.3097917824565887e+05 -3.1312308432548549e+07 
+1.7000000000000004e+00 -5.9478346301544827e-01 +8.1192902610091409e+00 -4.8031565040308349e-01 +2.6890345257223927e+01 +5.8424074246649679e+03 -3.3078048590514867e+05 -3.1967708642450485e+07 
+1.8000000000000005e+00 -5.9478333820108642e-01 +8.1193137164559293e+00 -4.9063442001199592e-01 +2.6616743515309764e+01 +6.0139935655139270e+03 -3.3017095391240588e+05 -3.2644921627207514e+07 
+1.9000000000000006e+00 -5.9478322195845068e-01 +8.1193390079431484e+00 -5.0108336014612909e-01 +2.6268747827286319e+01 +6.1898646844543855e+03 -3.2913192734286928e+05 -3.3344655711481415e+07 
+2.0000000000000004e+00 -5.9478311478662693e-01 +8.1193661033533981e+00 -5.1165248854278800e-01 +2.5843938904563007e+01 +6.3700385023643803e+03 -3.2764475153427932e+05 -3.4067619126952223e+07 
+2.1000000000000005e+00 -5.9478301715426674e-01 +8.1193949565252233e+00 -5.2232049821926085e-01 +2.5341097420066994e+01 +6.5542960029572641e+03 -3.2569842239249370e+05 -3.4813408233532079e+07 
+2.2000000000000006e+00 -5.9478292940405886e-01 +8.1194254606732450e+00 -5.3302118113474206e-01 +2.4763895446620001e+01 +6.7414667840975453e+03 -3.2331294846205413e+05 -3.5577126571868554e+07 
+2.3000000000000007e+00 -5.9478285184625201e-01 +8.1194574927271361e+00 -5.4367718538177012e-01 +2.4117251814448949e+01 +6.9301411312272412e+03 -3.2051619961450901e+05 -3.6352741460221015e+07 
+2.4000000000000008e+00 -5.9478278479108115e-01 +8.1194909296122866e+00 -5.5421116106591140e-01 +2.3406085501972900e+01 +7.1189093740064645e+03 -3.1733604656361206e+05 -3.7134220447604552e+07 
+2.5000000000000009e+00 -5.9478272854879932e-01 +8.1195256482452667e+00 -5.6454575634035176e-01 +2.2635315745289201e+01 +7.3063618029059353e+03 -3.1380036143712321e+05 -3.7915530889318541e+07 
+2.6000000000000010e+00 -5.9478268342962959e-01 +8.1195615255349001e+00 -5.7460362221982442e-01 +2.1809862024467922e+01 +7.4910887591408928e+03 -3.0993701773017459e+05 -3.8690640376202188e+07 
+2.7000000000000011e+00 -5.9478264974381090e-01 +8.1195984383809581e+00 -5.8430740831611006e-01 +2.0934644105295067e+01 +7.6716805574409836e+03 -3.0577389056073886e+05 -3.9453516371577732e+07 
+2.8000000000000012e+00 -5.9478262780156776e-01 +8.1196362636785349e+00 -5.9357976586108441e-01 +2.0014581912705207e+01 +7.8467275416858729e+03 -3.0133885592423909e+05 -4.0198126474352323e+07 
+2.9000000000000012e+00 -5.9478261791311338e-01 +8.1196748783093273e+00 -6.0234334773926623e-01 +1.9054595793937054e+01 +8.0148200863768907e+03 -2.9665979224514705e+05 -4.0918438425169863e+07 
+3.0000000000000013e+00 -5.9478262038866481e-01 +8.1197141591444595e+00 -6.1052080635743411e-01 +1.8059606424786210e+01 +8.1745485541927610e+03 -2.9176457979264855e+05 -4.1608419899636276e+07 
+3.1000000000000014e+00 -5.9478263553842681e-01 +8.1197539830445020e+00 -6.1803479545996198e-01 +1.7034534832548275e+01 +8.3245033285672926e+03 -2.8668110087127017e+05 -4.2262038657698236e+07 
+3.2000000000000015e+00 -5.9478266367257560e-01 +8.1197942268609982e+00 -6.2480797292335521e-01 +1.5984302342559845e+01 +8.4632748717863997e+03 -2.8143723948212311e+05 -4.2873262832200937e+07 
+3.3000000000000016e+00 -5.9478270510130671e-01 +8.1198347674324332e+00 -6.3076299409990444e-01 +1.4913830701452271e+01 +8.5894535927084216e+03 -2.7606088204394374e+05 -4.3436060283246040e+07 
+3.4000000000000017e+00 -5.9478276013477616e-01 +8.1198754815815715e+00 -6.3582251947185731e-01 +1.3828042165728574e+01 +8.7016299959077151e+03 -2.7057991793863266e+05 -4.3944399319390640e+07 
+3.5000000000000018e+00 -5.9478282908314872e-01 +8.1199162461180077e+00 -6.3990920875134583e-01 +1.2731859416502324e+01 +8.7983945669516015e+03 -2.6502223897365731e+05 -4.4392248139864005e+07 
+3.6000000000000019e+00 -5.9478291225654922e-01 +8.1199569378459344e+00 -6.4294572680988249e-01 +1.1630205351856155e+01 +8.8783378856166328e+03 -2.5941573821876163e+05 -4.4773575378398061e+07 
+3.7000000000000020e+00 -5.9478300996511657e-01 +8.1199974335403091e+00 -6.4485473674790494e-01 +1.0528003779493938e+01 +8.9400504928297505e+03 -2.5378831403185398e+05 -4.5082349463734239e+07 
+3.8000000000000020e+00 -5.9478312251893684e-01 +8.1200376099717690e+00 -6.4555890891574108e-01 +9.4301786823515403e+00 +8.9821230633158266e+03 -2.4816786574484818e+05 -4.5312539443051942e+07 
+3.9000000000000021e+00 -5.9478325022811074e-01 +8.1200773438906708e+00 -6.4498091211420860e-01 +8.3416547127328382e+00 +9.0031462389338230e+03 -2.4258229662296036e+05 -4.5458114191987254e+07 
+4.0000000000000018e+00 -5.9478339340269026e-01 +8.1201165120320287e+00 -6.4304342106013190e-01 +7.2673570323319909e+00 +9.0017107652884843e+03 -2.3705951286940213e+05 -4.5513043048184611e+07 
+4.1000000000000014e+00 -5.9478355218215595e-01 +8.1201549918427052e+00 -6.3969638425298758e-01 +6.2119089406740073e+00 +8.9768752161968187e+03 -2.3162541061747272e+05 -4.5473246089646600e+07 
+4.2000000000000011e+00 -5.9478372602658958e-01 +8.1201926730761240e+00 -6.3499848418502569e-01 +5.1786109637837319e+00 +8.9295697185844165e+03 -2.2629786195526048e+05 -4.5342459569453865e+07 
+4.3000000000000007e+00 -5.9478391422682397e-01 +8.1202294509386022e+00 -6.2903553021562930e-01 +4.1704031991052410e+00 +8.8611928932955307e+03 -2.2109273277317159e+05 -4.5126378765633576e+07 
+4.4000000000000004e+00 -5.9478411607366610e-01 +8.1202652206329429e+00 -6.2189333450174444e-01 +3.1902258606906546e+00 +8.7731434081663101e+03 -2.1602588974878623e+05 -4.4830699157448590e+07 
+4.5000000000000000e+00 -5.9478433085792148e-01 +8.1202998773765458e+00 -6.1365770944508802e-01 +2.2410187407661275e+00 +8.6668199311891476e+03 -2.1111319717220555e+05 -4.4461116207040347e+07 
+4.5999999999999996e+00 -5.9478455787038265e-01 +8.1203333163902816e+00 -6.0441446885095806e-01 +1.3257215326988221e+00 +8.5436211499698384e+03 -2.0637051882940673e+05 -4.4023325443991698e+07 
+4.6999999999999993e+00 -5.9478479640178750e-01 +8.1203654329029753e+00 -5.9424943282983245e-01 +4.4727370191910648e-01 +8.4049458640124867e+03 -2.0181371727445786e+05 -4.3523022903800100e+07 
+4.7999999999999989e+00 -5.9478504574289170e-01 +8.1203961221517265e+00 -5.8324841911969538e-01 -3.9138552365618473e-01 +8.2521928217301265e+03 -1.9745865376715691e+05 -4.2965904355221115e+07 
+4.8999999999999986e+00 -5.9478530518439521e-01 +8.1204252793801217e+00 -5.7149725189947187e-01 -1.1873171117561236e+00 +8.0867608843013331e+03 -1.9332118851018589e+05 -4.2357666070872150e+07 
+4.9999999999999982e+00 -5.9478557401700749e-01 +8.1204527998498222e+00 -5.5908175452639142e-01 -1.9375825385911887e+00 +7.9100488950188055e+03 -1.8941717889027914e+05 -4.1704004224443637e+07 
+5.0999999999999979e+00 -5.9478585153138686e-01 +8.1204785788248053e+00 -5.4608775551620192e-01 -2.6392433564833544e+00 +7.7234557808951577e+03 -1.8576248194558630e+05 -4.1010615342577390e+07 
+5.1999999999999975e+00 -5.9478613701817740e-01 +8.1205025115827496e+00 -5.3260108521315008e-01 -3.2893615231379632e+00 +7.5283804973934675e+03 -1.8237295245040799e+05 -4.0283196061002389e+07 
+5.2999999999999972e+00 -5.9478642976800877e-01 +8.1205244934147558e+00 -5.1870757589296090e-01 -3.8849993767621589e+00 +7.3262220320783563e+03 -1.7926444312447330e+05 -3.9527443148170881e+07 
+5.3999999999999968e+00 -5.9478672907146135e-01 +8.1205444196231635e+00 -5.0449306468634070e-01 -4.4232195949958708e+00 +7.1183794499211535e+03 -1.7645280481174850e+05 -3.8749053691879496e+07 
+5.4999999999999964e+00 -5.9478703421911583e-01 +8.1205621855249852e+00 -4.9004338918447166e-01 -4.9010852750190228e+00 +6.9062518205002416e+03 -1.7395388608005756e+05 -3.7953724781514496e+07 
+5.5999999999999961e+00 -5.9478734450150761e-01 +8.1205776864515826e+00 -4.7544439141576089e-01 -5.3156599381526872e+00 +6.6912382838360918e+03 -1.7178353316243499e+05 -3.7147153795169771e+07 
+5.6999999999999957e+00 -5.9478765920915755e-01 +8.1205908177474520e+00 -4.6078191592674550e-01 -5.6640074956326352e+00 +6.4747380252903658e+03 -1.6995759016697254e+05 -3.6335038309553526e+07 
+5.7999999999999954e+00 -5.9478797763252700e-01 +8.1206014747772617e+00 -4.4614181297973859e-01 -5.9431924438816592e+00 +6.2581503195208279e+03 -1.6849189796476433e+05 -3.5523076264532007e+07 
+5.8999999999999950e+00 -5.9478829906208364e-01 +8.1206095529157452e+00 -4.3160993268288361e-01 -6.1502795764570406e+00 +6.0428744360384944e+03 -1.6740229586877362e+05 -3.4716965558500677e+07 
+5.9999999999999947e+00 -5.9478862278824407e-01 +8.1206149475601368e+00 -4.1727213046334749e-01 -6.2823343631435300e+00 +5.8303097300073923e+03 -1.6670461938811929e+05 -3.3922404445852377e+07 
+6.0999999999999943e+00 -5.9478894812019645e-01 +8.1206176034990367e+00 -4.0320650736021751e-01 -6.3380130092977334e+00 +5.6217080806797157e+03 -1.6640595244446179e+05 -3.3144380542656165e+07 
+6.1999999999999940e+00 -5.9478927445391838e-01 +8.1206176564732324e+00 -3.8946046784735777e-01 -6.3221978051853389e+00 +5.4177620487547283e+03 -1.6647921974278163e+05 -3.2385225358265720e+07 
+6.2999999999999936e+00 -5.9478960121005031e-01 +8.1206152884777900e+00 -3.7607380038010524e-01 -6.2413005238029839e+00 +5.2190315760734475e+03 -1.6688898088229736e+05 -3.1646650423692897e+07 
+6.3999999999999932e+00 -5.9478992780925211e-01 +8.1206106815214838e+00 -3.6308629079267368e-01 -6.1017333393708748e+00 +5.0260765646551818e+03 -1.6759979346569296e+05 -3.0930367117337719e+07 
+6.4999999999999929e+00 -5.9479025367221805e-01 +8.1206040176283825e+00 -3.5053771989121152e-01 -5.9099088771943054e+00 +4.8394568252627741e+03 -1.6857621277477973e+05 -3.0238086405781802e+07 
+6.5999999999999925e+00 -5.9479057821969306e-01 +8.1205954788402863e+00 -3.3846786148614794e-01 -5.6722402864451675e+00 +4.6597320439559453e+03 -1.6978279134783760e+05 -2.9571518698367994e+07 
+6.6999999999999922e+00 -5.9479090087240916e-01 +8.1205852472126132e+00 -3.2691649016994417e-01 -5.3951411190922274e+00 +4.4874619283779875e+03 -1.7118407970223200e+05 -2.8932374539918751e+07 
+6.7999999999999918e+00 -5.9479122105119786e-01 +8.1205735048233993e+00 -3.1592336762772427e-01 -5.0850255840946712e+00 +4.3232059485958325e+03 -1.7274462488752906e+05 -2.8322363377558418e+07 
+6.8999999999999915e+00 -5.9479153817689201e-01 +8.1205604337622610e+00 -3.0552825482259732e-01 -4.7483082471378149e+00 +4.1675235704003117e+03 -1.7442897219080664e+05 -2.7743194679167647e+07 
+6.9999999999999911e+00 -5.9479185167035742e-01 +8.1205462161392798e+00 -2.9577090760235397e-01 -4.3914042621238130e+00 +4.0209741704007943e+03 -1.7620166386781464e+05 -2.7196577526069507e+07 
+7.0999999999999908e+00 -5.9479216095251908e-01 +8.1205310340840402e+00 -2.8669107382634546e-01 -4.0207293807745650e+00 +3.8841169817260898e+03 -1.7802723900470973e+05 -2.6684220353694938e+07 
+7.1999999999999904e+00 -5.9479246544434616e-01 +8.1205150697450463e+00 -2.7832849550996452e-01 -3.6426998867046541e+00 +3.7575111390666129e+03 -1.7987023403736181e+05 -2.6207831180102132e+07 
+7.2999999999999901e+00 -5.9479276456684360e-01 +8.1204985052923337e+00 -2.7072290831004236e-01 -3.2637327221309160e+00 +3.6417156599329992e+03 -1.8169518189916352e+05 -2.5769117493486609e+07 
+7.3999999999999897e+00 -5.9479305774106239e-01 +8.1204815229100227e+00 -2.6391404266945462e-01 -2.8902452349550147e+00 +3.5372894798549573e+03 -1.8346661359153275e+05 -2.5369786454269402e+07 
+7.4999999999999893e+00 -5.9479334438811071e-01 +8.1204643048105378e+00 -2.5794162020541062e-01 -2.5286556112409437e+00 +3.4447913721870277e+03 -1.8514905563644311e+05 -2.5011544484955441e+07 
+7.5999999999999890e+00 -5.9479362392914903e-01 +8.1204470332222591e+00 -2.5284535548625592e-01 -2.1853825138177476e+00 +3.3647799906171135e+03 -1.8670703219090239e+05 -2.4696097496776626e+07 
+7.6999999999999886e+00 -5.9479389578537900e-01 +8.1204298904000627e+00 -2.4866495755190376e-01 -1.8668453891664427e+00 +3.2978138955175818e+03 -1.8810506327655193e+05 -2.4425151005831953e+07 
+7.7999999999999883e+00 -5.9479415937803826e-01 +8.1204130586170802e+00 -2.4544012921756186e-01 -1.5794642190978330e+00 +3.2444515374799962e+03 -1.8930766625871701e+05 -2.4200410051107772e+07 
+7.8999999999999879e+00 -5.9479441412846479e-01 +8.1203967201714953e+00 -2.4321056050891887e-01 -1.3296597383601845e+00 +3.2052511392147276e+03 -1.9027935453417138e+05 -2.4023578647104654e+07 
+7.9999999999999876e+00 -5.9479465945802346e-01 +8.1203810573861457e+00 -2.4201593743608316e-01 -1.1238533604794156e+00 +3.1807708663823960e+03 -1.9098463816662107e+05 -2.3896360616194330e+07 
+8.0999999999999872e+00 -5.9479489506456318e-01 +8.1203662153487617e+00 -2.4187786974136335e-01 -9.6654508156417940e-01 +3.1713492416072336e+03 -1.9139989238744925e+05 -2.3819862084274154e+07 
+8.1999999999999869e+00 -5.9479512172630500e-01 +8.1203521959349008e+00 -2.4274730986086537e-01 -8.5496683746548752e-01 +3.1764182577434194e+03 -1.9154502620899229e+05 -2.3792544889228594e+07 
+8.2999999999999865e+00 -5.9479534048569638e-01 +8.1203389663433754e+00 -2.4455790067203603e-01 -7.8461959572965956e-01 +3.1951760513515492e+03 -1.9144995096817354e+05 -2.3812151341560304e+07 
+8.3999999999999861e+00 -5.9479555238514936e-01 +8.1203264937498965e+00 -2.4724329223514138e-01 -7.5100376198678820e-01 +3.2268208985045399e+03 -1.9114458037730140e+05 -2.3876424410629679e+07 
+8.4999999999999858e+00 -5.9479575846707278e-01 +8.1203147453110134e+00 -2.5073713777011852e-01 -7.4961926643571597e-01 +3.2705511389881590e+03 -1.9065883027831838e+05 -2.3983107347204279e+07 
+8.5999999999999854e+00 -5.9479595977382715e-01 +8.1203036881621777e+00 -2.5497309934194562e-01 -7.7596551631331701e-01 +3.3255652841261631e+03 -1.9002261887830691e+05 -2.4129944196929429e+07 
+8.6999999999999851e+00 -5.9479615734777902e-01 +8.1202932894103146e+00 -2.5988484173502635e-01 -8.2554119790613001e-01 +3.3910619042214876e+03 -1.8926586782982710e+05 -2.4314679271907646e+07 
+8.7999999999999847e+00 -5.9479635223122918e-01 +8.1202835161427487e+00 -2.6540604089981867e-01 -8.9384452379174140e-01 +3.4662397841570246e+03 -1.8841850081669167e+05 -2.4535057877629142e+07 
+8.8999999999999844e+00 -5.9479654546649507e-01 +8.1202743354160987e+00 -2.7147037345252945e-01 -9.7637291293800044e-01 +3.5502977243166147e+03 -1.8751044539275701e+05 -2.4788825367322918e+07 
+8.9999999999999840e+00 -5.9479673809583300e-01 +8.1202657142672177e+00 -2.7801152749330510e-01 -1.0686233173398596e+00 +3.6424347497226340e+03 -1.8657163103074161e+05 -2.5073728143232949e+07 
+9.0999999999999837e+00 -5.9479693116148569e-01 +8.1202576197039757e+00 -2.8496319593364006e-01 -1.1660919644712229e+00 +3.7418499821784108e+03 -1.8563199058735179e+05 -2.5387513047349889e+07 
+9.1999999999999833e+00 -5.9479712570567478e-01 +8.1202500187014355e+00 -2.9225907806677170e-01 -1.2642742228037442e+00 +3.8477426677741355e+03 -1.8472146113166155e+05 -2.5727927481115505e+07 
+9.2999999999999829e+00 -5.9479732277056641e-01 +8.1202428782152829e+00 -2.9983288357901117e-01 -1.3586650149188337e+00 +3.9593122571512117e+03 -1.8386998145902948e+05 -2.6092719801437549e+07 
+9.3999999999999826e+00 -5.9479752339831871e-01 +8.1202361651617831e+00 -3.0761832660346777e-01 -1.4447582490705511e+00 +4.0757582873690594e+03 -1.8310749534561759e+05 -2.6479638740966395e+07 
+9.4999999999999822e+00 -5.9479772863104463e-01 +8.1202298464378710e+00 -3.1554913087613617e-01 -1.5180473705330393e+00 +4.1962804844334378e+03 -1.8246394841825136e+05 -2.6886433908048321e+07 
+9.5999999999999819e+00 -5.9479793951083060e-01 +8.1202238889002718e+00 -3.2355902728931257e-01 -1.5740247886665908e+00 +4.3200787155584785e+03 -1.8196929137107916e+05 -2.7310855555071652e+07 
+9.6999999999999815e+00 -5.9479815707973638e-01 +8.1202182593748180e+00 -3.3158175431313641e-01 -1.6081821374939920e+00 +4.4463529992803524e+03 -1.8165347846617698e+05 -2.7750654631846327e+07 
+9.7999999999999812e+00 -5.9479838237976856e-01 +8.1202129246611676e+00 -3.3955106057772172e-01 -1.6160104145507934e+00 +4.5743035491475512e+03 -1.8154646670831420e+05 -2.8203582977407835e+07 
+9.8999999999999808e+00 -5.9479861645292476e-01 +8.1202078515204743e+00 -3.4740070009112201e-01 -1.5929996368511048e+00 +4.7031306867263347e+03 -1.8167821777936572e+05 -2.8667392915870011e+07 
+9.9999999999999805e+00 -5.9479886034112495e-01 +8.1202030066815833e+00 -3.5506444072915655e-01 -1.5346390745009941e+00 +4.8320349917385502e+03 -1.8207869665012162e+05 -2.9139837940747015e+07 
+1.0099999999999980e+01 -5.9479911487155135e-01 +8.1201983549368926e+00 -3.6248639690980439e-01 -1.4375926524010212e+00 +4.9602769569635584e+03 -1.8276926652528098e+05 -2.9618605174990553e+07 
