# field on trajectory
# s[mm] rx[mm] ry[mm] rz[mm] bx[T] by[T] bz[T]
-0.0000000000000000e+00 +8.1530000000000094e+00 +0.0000000000000000e+00 -0.0000000000000000e+00 -2.9536976529725048e-02 -5.6505848036780271e-01 +5.6623802065710162e-03
-1.0000000000000001e-01 +8.1529997159377707e+00 +0.0000000000000000e+00 -1.0008006405070299e-01 -2.9536899995055658e-02 -5.6505866769964319e-01 +5.6623076606853702e-03
-2.0000000000000001e-01 +8.1529988637557800e+00 +0.0000000000000000e+00 -2.0016012809818201e-01 -2.9536833759766637e-02 -5.6505886313829579e-01 +5.6622350096752474e-03
-2.9999999999999999e-01 +8.1529974434524792e+00 +0.0000000000000000e+00 -3.0024019213920999e-01 -2.9536777070971628e-02 -5.6505906668140427e-01 +5.6621623340426634e-03
-4.0000000000000002e-01 +8.1529954550242092e+00 +0.0000000000000000e+00 -4.0032025617056399e-01 -2.9536729175786536e-02 -5.6505927832664682e-01 +5.6620897142889278e-03
-5.0000000000000000e-01 +8.1529928984782600e+00 +0.0000000000000000e+00 -5.0040032018901703e-01 -2.9536689321325423e-02 -5.6505949807163136e-01 +5.6620172309139651e-03
-5.9999999999999998e-01 +8.1529897738146193e+00 +0.0000000000000000e+00 -6.0048038419134497e-01 -2.9536656754709120e-02 -5.6505972591403508e-01 +5.6619449644180466e-03
-6.9999999999999996e-01 +8.1529860810223909e+00 +0.0000000000000000e+00 -7.0056044817432195e-01 -2.9536630723067878e-02 -5.6505996185162632e-01 +5.6618729953024256e-03
-8.0000000000000004e-01 +8.1529818201124709e+00 +0.0000000000000000e+00 -8.0064051213472498e-01 -2.9536610473529328e-02 -5.6506020588201222e-01 +5.6618014040671055e-03
-9.0000000000000002e-01 +8.1529769910812302e+00 +0.0000000000000000e+00 -9.0072057606932698e-01 -2.9536595253234387e-02 -5.6506045800291382e-01 +5.6617302712139994e-03
-1.0000000000000000e+00 +8.1529715939250291e+00 +0.0000000000000000e+00 -1.0008006399749001e+00 -2.9536584309332606e-02 -5.6506071821205206e-01 +5.6616596772461484e-03
-1.1000000000000001e+00 +8.1529656286511507e+00 +0.0000000000000000e+00 -1.1008807038482300e+00 -2.9536576888978885e-02 -5.6506098650705994e-01 +5.6615897026671682e-03
-1.2000000000000000e+00 +8.1529590952522994e+00 +0.0000000000000000e+00 -1.2009607676860801e+00 -2.9536572239345086e-02 -5.6506126288567637e-01 +5.6615204279836032e-03
-1.3000000000000000e+00 +8.1529519937357708e+00 +0.0000000000000000e+00 -1.3010408314852300e+00 -2.9536569607609298e-02 -5.6506154734551772e-01 +5.6614519337029514e-03
-1.3999999999999999e+00 +8.1529443240979198e+00 +0.0000000000000000e+00 -1.4011208952424601e+00 -2.9536568240967537e-02 -5.6506183988427183e-01 +5.6613843003360002e-03
-1.5000000000000000e+00 +8.1529360863350995e+00 +0.0000000000000000e+00 -1.5012009589545301e+00 -2.9536567386630342e-02 -5.6506214049961156e-01 +5.6613176083963133e-03
-1.6000000000000001e+00 +8.1529272804509691e+00 +0.0000000000000000e+00 -1.6012810226182299e+00 -2.9536566291821203e-02 -5.6506244918913384e-01 +5.6612519383999766e-03
-1.7000000000000000e+00 +8.1529179064491508e+00 +0.0000000000000000e+00 -1.7013610862303301e+00 -2.9536564203780535e-02 -5.6506276595041371e-01 +5.6611873708664988e-03
-1.8000000000000000e+00 +8.1529079643223703e+00 +0.0000000000000000e+00 -1.8014411497875999e+00 -2.9536560369771439e-02 -5.6506309078108563e-01 +5.6611239863200002e-03
-1.8999999999999999e+00 +8.1528974540779000e+00 +0.0000000000000000e+00 -1.9015212132868200e+00 -2.9536554037070516e-02 -5.6506342367864348e-01 +5.6610618652875571e-03
-2.0000000000000000e+00 +8.1528863757084800e+00 +0.0000000000000000e+00 -2.0016012767247702e+00 -2.9536544452981307e-02 -5.6506376464066166e-01 +5.6610010883016409e-03
-2.1000000000000001e+00 +8.1528747292177304e+00 +0.0000000000000000e+00 -2.1016813400982199e+00 -2.9536530970743911e-02 -5.6506411346300167e-01 +5.6609416962262842e-03
-2.2000000000000002e+00 +8.1528625146056601e+00 +0.0000000000000000e+00 -2.2017614034039301e+00 -2.9536513347439283e-02 -5.6506446917292608e-01 +5.6608835786747368e-03
-2.2999999999999998e+00 +8.1528497318759001e+00 +0.0000000000000000e+00 -2.3018414666387002e+00 -2.9536491436366382e-02 -5.6506483061450552e-01 +5.6608265892191629e-03
-2.3999999999999999e+00 +8.1528363810211903e+00 +0.0000000000000000e+00 -2.4019215297993002e+00 -2.9536465090819038e-02 -5.6506519663187371e-01 +5.6607705814322963e-03
-2.5000000000000000e+00 +8.1528224620451493e+00 +0.0000000000000000e+00 -2.5020015928824901e+00 -2.9536434164074848e-02 -5.6506556606905833e-01 +5.6607154088854639e-03
-2.6000000000000001e+00 +8.1528079749477893e+00 +0.0000000000000000e+00 -2.6020816558850601e+00 -2.9536398509398744e-02 -5.6506593777009306e-01 +5.6606609251494567e-03
-2.7000000000000002e+00 +8.1527929197291105e+00 +0.0000000000000000e+00 -2.7021617188037701e+00 -2.9536357980039226e-02 -5.6506631057898715e-01 +5.6606069837939529e-03
-2.7999999999999998e+00 +8.1527772963891003e+00 +0.0000000000000000e+00 -2.8022417816354102e+00 -2.9536312429226112e-02 -5.6506668333972643e-01 +5.6605534383872749e-03
-2.8999999999999999e+00 +8.1527611049277802e+00 +0.0000000000000000e+00 -2.9023218443767500e+00 -2.9536261710168203e-02 -5.6506705489627096e-01 +5.6605001424960937e-03
-3.0000000000000000e+00 +8.1527443453451305e+00 +0.0000000000000000e+00 -3.0024019070245598e+00 -2.9536205676051017e-02 -5.6506742409255584e-01 +5.6604469496851773e-03
-3.1000000000000001e+00 +8.1527270176411495e+00 +0.0000000000000000e+00 -3.1024819695756198e+00 -2.9536144180034477e-02 -5.6506778977248839e-01 +5.6603937135171088e-03
-3.2000000000000002e+00 +8.1527091218158603e+00 +0.0000000000000000e+00 -3.2025620320267101e+00 -2.9536077075250623e-02 -5.6506815077994921e-01 +5.6603402875520115e-03
-3.2999999999999998e+00 +8.1526906578692397e+00 +0.0000000000000000e+00 -3.3026420943745900e+00 -2.9536004214801338e-02 -5.6506850595879010e-01 +5.6602865253472853e-03
-3.3999999999999999e+00 +8.1526716258013003e+00 +0.0000000000000000e+00 -3.4027221566160502e+00 -2.9535925451756023e-02 -5.6506885415283381e-01 +5.6602322804573391e-03
-3.5000000000000000e+00 +8.1526520256120403e+00 +0.0000000000000000e+00 -3.5028022187478500e+00 -2.9535840639149352e-02 -5.6506919420587332e-01 +5.6601774064333130e-03
-3.6000000000000001e+00 +8.1526318572978198e+00 +0.0000000000000000e+00 -3.6028822807667802e+00 -2.9535749629980394e-02 -5.6506952496169816e-01 +5.6601217568230857e-03
-3.7000000000000002e+00 +8.1526111208659096e+00 +0.0000000000000000e+00 -3.7029623426696099e+00 -2.9535652277204467e-02 -5.6506984526398274e-01 +5.6600651851698817e-03
-3.7999999999999998e+00 +8.1525898163126804e+00 +0.0000000000000000e+00 -3.8030424044531101e+00 -2.9535548433739671e-02 -5.6507015395645266e-01 +5.6600075450136912e-03
-3.8999999999999999e+00 +8.1525679436344909e+00 +0.0000000000000000e+00 -3.9031224661140600e+00 -2.9535437952460178e-02 -5.6507044988280086e-01 +5.6599486898901621e-03
-4.0000000000000000e+00 +8.1525455028386205e+00 +0.0000000000000000e+00 -4.0032025276492398e+00 -2.9535320686192638e-02 -5.6507073188661394e-01 +5.6598884733315216e-03
-4.0999999999999996e+00 +8.1525224939177896e+00 +0.0000000000000000e+00 -4.1032825890554099e+00 -2.9535196592171464e-02 -5.6507099922534210e-01 +5.6598268179555199e-03
-4.2000000000000002e+00 +8.1524989168792708e+00 +0.0000000000000000e+00 -4.2033626503293604e+00 -2.9535066007193807e-02 -5.6507125266011737e-01 +5.6597638974644040e-03
-4.2999999999999998e+00 +8.1524747717157897e+00 +0.0000000000000000e+00 -4.3034427114678504e+00 -2.9534929354270226e-02 -5.6507149329371709e-01 +5.6596999425852657e-03
-4.4000000000000004e+00 +8.1524500584346207e+00 +0.0000000000000000e+00 -4.4035227724676700e+00 -2.9534787056409648e-02 -5.6507172222882895e-01 +5.6596351840453134e-03
-4.5000000000000000e+00 +8.1524247770285001e+00 +0.0000000000000000e+00 -4.5036028333255800e+00 -2.9534639536632035e-02 -5.6507194056827548e-01 +5.6595698525742670e-03
-4.5999999999999996e+00 +8.1523989275046898e+00 +0.0000000000000000e+00 -4.6036828940383696e+00 -2.9534487217957685e-02 -5.6507214941479245e-01 +5.6595041789021857e-03
-4.7000000000000002e+00 +8.1523725098559208e+00 +0.0000000000000000e+00 -4.7037629546028104e+00 -2.9534330523419982e-02 -5.6507234987125687e-01 +5.6594383937618713e-03
-4.7999999999999998e+00 +8.1523455240894709e+00 +0.0000000000000000e+00 -4.8038430150156701e+00 -2.9534169876054679e-02 -5.6507254304046350e-01 +5.6593727278866973e-03
-4.9000000000000004e+00 +8.1523179701980606e+00 +0.0000000000000000e+00 -4.9039230752737302e+00 -2.9534005698912659e-02 -5.6507273002535297e-01 +5.6593074120130154e-03
-5.0000000000000000e+00 +8.1522898481889605e+00 +0.0000000000000000e+00 -5.0040031353737602e+00 -2.9533838415049130e-02 -5.6507291192878839e-01 +5.6592426768779618e-03
-5.0999999999999996e+00 +8.1522611580549000e+00 +0.0000000000000000e+00 -5.1040831953125396e+00 -2.9533668447536542e-02 -5.6507308985378402e-01 +5.6591787532218867e-03
-5.2000000000000002e+00 +8.1522318997995207e+00 +0.0000000000000000e+00 -5.2041632550868497e+00 -2.9533496219455151e-02 -5.6507326490330900e-01 +5.6591158717864461e-03
-5.2999999999999998e+00 +8.1522020734228100e+00 +0.0000000000000000e+00 -5.3042433146934496e+00 -2.9533322153900029e-02 -5.6507343818040434e-01 +5.6590542633158684e-03
-5.4000000000000004e+00 +8.1521716789247893e+00 +0.0000000000000000e+00 -5.4043233741291203e+00 -2.9533146673980531e-02 -5.6507361078815543e-01 +5.6589941585567811e-03
-5.5000000000000000e+00 +8.1521407163090807e+00 +0.0000000000000000e+00 -5.5044034333906504e+00 -2.9532970202819898e-02 -5.6507378382966778e-01 +5.6589357882580434e-03
-5.5999999999999996e+00 +8.1521091855684098e+00 +0.0000000000000000e+00 -5.6044834924747899e+00 -2.9532793163562145e-02 -5.6507395840818064e-01 +5.6588793831719927e-03
-5.7000000000000002e+00 +8.1520770867064094e+00 +0.0000000000000000e+00 -5.7045635513783299e+00 -2.9532615979364202e-02 -5.6507413562690201e-01 +5.6588251740528513e-03
-5.7999999999999998e+00 +8.1520444197231008e+00 +0.0000000000000000e+00 -5.8046436100980499e+00 -2.9532439073402868e-02 -5.6507431658912177e-01 +5.6587733916579801e-03
-5.9000000000000004e+00 +8.1520111846184609e+00 +0.0000000000000000e+00 -5.9047236686307096e+00 -2.9532262868874341e-02 -5.6507450239818779e-01 +5.6587242667477103e-03
-5.9999999999999902e+00 +8.1519773813925003e+00 +0.0000000000000000e+00 -6.0048037269731003e+00 -2.9532087788987773e-02 -5.6507469415747802e-01 +5.6586780300776022e-03
-6.0999999999999899e+00 +8.1519430100452208e+00 +0.0000000000000000e+00 -6.1048837851219799e+00 -2.9531914179604737e-02 -5.6507489265916855e-01 +5.6586348306742335e-03
-6.1999999999999904e+00 +8.1519080705766100e+00 +0.0000000000000000e+00 -6.2049638430741396e+00 -2.9531742118533082e-02 -5.6507509761702701e-01 +5.6585945343801559e-03
-6.2999999999999901e+00 +8.1518725629866804e+00 +0.0000000000000000e+00 -6.3050439008263499e+00 -2.9531571625563184e-02 -5.6507530851143883e-01 +5.6585569457450191e-03
-6.3999999999999897e+00 +8.1518364872754301e+00 +0.0000000000000000e+00 -6.4051239583753699e+00 -2.9531402720484472e-02 -5.6507552482282142e-01 +5.6585218693150060e-03
-6.4999999999999902e+00 +8.1517998434428591e+00 +0.0000000000000000e+00 -6.5052040157180002e+00 -2.9531235423085472e-02 -5.6507574603162225e-01 +5.6584891096326815e-03
-6.5999999999999899e+00 +8.1517626314889604e+00 +0.0000000000000000e+00 -6.6052840728510001e+00 -2.9531069753153810e-02 -5.6507597161832113e-01 +5.6584584712368307e-03
-6.6999999999999904e+00 +8.1517248514137499e+00 +0.0000000000000000e+00 -6.7053641297711399e+00 -2.9530905730476315e-02 -5.6507620106343115e-01 +5.6584297586623148e-03
-6.7999999999999901e+00 +8.1516865032135701e+00 +0.0000000000000000e+00 -6.8054441864752100e+00 -2.9530743374840469e-02 -5.6507643384752781e-01 +5.6584027764401993e-03
-6.8999999999999897e+00 +8.1516475868957095e+00 +0.0000000000000000e+00 -6.9055242429599701e+00 -2.9530582706028544e-02 -5.6507666945113633e-01 +5.6583773290964489e-03
-6.9999999999999902e+00 +8.1516081024565192e+00 +0.0000000000000000e+00 -7.0056042992222096e+00 -2.9530423743826573e-02 -5.6507690735490268e-01 +5.6583532211535109e-03
-7.0999999999999899e+00 +8.1515680498960101e+00 +0.0000000000000000e+00 -7.1056843552586999e+00 -2.9530266508018370e-02 -5.6507714703948086e-01 +5.6583302571289948e-03
-7.1999999999999904e+00 +8.1515274292141804e+00 +0.0000000000000000e+00 -7.2057644110662000e+00 -2.9530111018387140e-02 -5.6507738798556351e-01 +5.6583082415358225e-03
-7.2999999999999901e+00 +8.1514862404073902e+00 +0.0000000000000000e+00 -7.3058444666415099e+00 -2.9529957294716930e-02 -5.6507762967390918e-01 +5.6582869788823469e-03
-7.3999999999999897e+00 +8.1514444834829192e+00 +0.0000000000000000e+00 -7.4059245219813796e+00 -2.9529805356786794e-02 -5.6507787158523137e-01 +5.6582662736710740e-03
-7.4999999999999902e+00 +8.1514021584334806e+00 +0.0000000000000000e+00 -7.5060045770826100e+00 -2.9529655224381172e-02 -5.6507811320039747e-01 +5.6582459304004955e-03
-7.5999999999999899e+00 +8.1513592652663593e+00 +0.0000000000000000e+00 -7.6060846319419504e+00 -2.9529506917278077e-02 -5.6507835400020268e-01 +5.6582257535626552e-03
-7.6999999999999904e+00 +8.1513158039779192e+00 +0.0000000000000000e+00 -7.7061646865561997e+00 -2.9529360455259480e-02 -5.6507859346556899e-01 +5.6582055476450017e-03
-7.7999999999999901e+00 +8.1512717745681602e+00 +0.0000000000000000e+00 -7.8062447409221098e+00 -2.9529215858105480e-02 -5.6507883107743395e-01 +5.6581851171290838e-03
-7.8999999999999897e+00 +8.1512271770334301e+00 +0.0000000000000000e+00 -7.9063247950364799e+00 -2.9529073145597263e-02 -5.6507906631680671e-01 +5.6581642664909736e-03
-7.9999999999999902e+00 +8.1511820113773901e+00 +0.0000000000000000e+00 -8.0064048488960609e+00 -2.9528932337499474e-02 -5.6507929866477646e-01 +5.6581428002155723e-03
-8.0999999999999908e+00 +8.1511362776036496e+00 +0.0000000000000000e+00 -8.1064849024976393e+00 -2.9528793392834485e-02 -5.6507952801836125e-01 +5.6581205930566897e-03
-8.1999999999999904e+00 +8.1510899757086008e+00 +0.0000000000000000e+00 -8.2065649558379903e+00 -2.9528656069948121e-02 -5.6507975564869184e-01 +5.6580977519477297e-03
-8.2999999999999901e+00 +8.1510431056885899e+00 +0.0000000000000000e+00 -8.3066450089139003e+00 -2.9528520085812790e-02 -5.6507998311024910e-01 +5.6580744317101996e-03
-8.3999999999999897e+00 +8.1509956675508892e+00 +0.0000000000000000e+00 -8.4067250617221205e+00 -2.9528385157412951e-02 -5.6508021195740121e-01 +5.6580507871699902e-03
-8.4999999999999893e+00 +8.1509476612882299e+00 +0.0000000000000000e+00 -8.5068051142594392e+00 -2.9528251001755875e-02 -5.6508044374459721e-01 +5.6580269731595469e-03
-8.5999999999999908e+00 +8.1508990869078808e+00 +0.0000000000000000e+00 -8.6068851665226305e+00 -2.9528117335860440e-02 -5.6508068002614142e-01 +5.6580031445158038e-03
-8.6999999999999904e+00 +8.1508499444025801e+00 +0.0000000000000000e+00 -8.7069652185084596e+00 -2.9527983876769408e-02 -5.6508092235641771e-01 +5.6579794560826296e-03
-8.7999999999999794e+00 +8.1508002337759500e+00 +0.0000000000000000e+00 -8.8070452702137203e+00 -2.9527850341539656e-02 -5.6508117228969057e-01 +5.6579560627090433e-03
-8.8999999999999808e+00 +8.1507499550316407e+00 +0.0000000000000000e+00 -8.9071253216351796e+00 -2.9527716447247075e-02 -5.6508143138018685e-01 +5.6579331192502455e-03
-8.9999999999999805e+00 +8.1506991081623692e+00 +0.0000000000000000e+00 -9.0072053727696098e+00 -2.9527581910991609e-02 -5.6508170118218248e-01 +5.6579107805686752e-03
-9.0999999999999801e+00 +8.1506476931717806e+00 +0.0000000000000000e+00 -9.1072854236137797e+00 -2.9527446449888799e-02 -5.6508198324982717e-01 +5.6578892015324836e-03
-9.1999999999999797e+00 +8.1505957100635005e+00 +0.0000000000000000e+00 -9.2073654741644795e+00 -2.9527309781074856e-02 -5.6508227913723252e-01 +5.6578685370165735e-03
-9.2999999999999794e+00 +8.1505431588302599e+00 +0.0000000000000000e+00 -9.3074455244184708e+00 -2.9527171621711524e-02 -5.6508259039855091e-01 +5.6578489419036645e-03
-9.3999999999999808e+00 +8.1504900394757005e+00 +0.0000000000000000e+00 -9.4075255743725297e+00 -2.9527031688977752e-02 -5.6508291858780779e-01 +5.6578305710827453e-03
-9.4999999999999805e+00 +8.1504363520034495e+00 +0.0000000000000000e+00 -9.5076056240234408e+00 -2.9526889700074731e-02 -5.6508326525898389e-01 +5.6578135794501470e-03
-9.5999999999999801e+00 +8.1503820964062506e+00 +0.0000000000000000e+00 -9.6076856733679694e+00 -2.9526745372230705e-02 -5.6508363196609845e-01 +5.6577981219105671e-03
-9.6999999999999797e+00 +8.1503272726913600e+00 +0.0000000000000000e+00 -9.7077657224029004e+00 -2.9526598422691269e-02 -5.6508402026301041e-01 +5.6577843533752656e-03
-9.7999999999999794e+00 +8.1502718808515109e+00 +0.0000000000000000e+00 -9.8078457711250007e+00 -2.9526448568731645e-02 -5.6508443170364275e-01 +5.6577724287645518e-03
-9.8999999999999808e+00 +8.1502159208903304e+00 +0.0000000000000000e+00 -9.9079258195310498e+00 -2.9526295527646910e-02 -5.6508486784178313e-01 +5.6577625030059609e-03
-9.9999999999999805e+00 +8.1501593928078400e+00 +0.0000000000000000e+00 -1.0008005867617801e+01 -2.9526139016822824e-02 -5.6508533023094665e-01 +5.6577547310056224e-03
-1.0100000000000000e+01 +8.1501022966040200e+00 +0.0000000000000000e+00 -1.0108085915382100e+01 -2.9525978912109334e-02 -5.6508581981145378e-01 +5.6577491940435470e-03
-1.0199999999999999e+01 +8.1500446322825209e+00 +0.0000000000000000e+00 -1.0208165962820599e+01 -2.9525815588641362e-02 -5.6508633559138943e-01 +5.6577457413666751e-03
-1.0300000000000001e+01 +8.1499863998360507e+00 +0.0000000000000000e+00 -1.0308246009930199e+01 -2.9525649519641265e-02 -5.6508687619924591e-01 +5.6577441766356047e-03
-1.0400000000000000e+01 +8.1499275992682705e+00 +0.0000000000000000e+00 -1.0408326056707599e+01 -2.9525481178305044e-02 -5.6508744026339275e-01 +5.6577443035153736e-03
-1.0500000000000000e+01 +8.1498682305791608e+00 +0.0000000000000000e+00 -1.0508406103149600e+01 -2.9525311037807696e-02 -5.6508802641219058e-01 +5.6577459256767146e-03
-1.0600000000000000e+01 +8.1498082937723701e+00 +0.0000000000000000e+00 -1.0608486149253000e+01 -2.9525139571299583e-02 -5.6508863327393333e-01 +5.6577488467955735e-03
-1.0699999999999999e+01 +8.1497477888406102e+00 +0.0000000000000000e+00 -1.0708566195014500e+01 -2.9524967251911696e-02 -5.6508925947695876e-01 +5.6577528705543572e-03
-1.0800000000000001e+01 +8.1496867157875403e+00 +0.0000000000000000e+00 -1.0808646240430900e+01 -2.9524794552746210e-02 -5.6508990364948097e-01 +5.6577578006403303e-03
-1.0900000000000000e+01 +8.1496250746131391e+00 +0.0000000000000000e+00 -1.0908726285499000e+01 -2.9524621946881741e-02 -5.6509056441970051e-01 +5.6577634407468519e-03
-1.1000000000000000e+01 +8.1495628653174208e+00 +0.0000000000000000e+00 -1.1008806330215601e+01 -2.9524449907371228e-02 -5.6509124041577519e-01 +5.6577695945732014e-03
-1.1100000000000000e+01 +8.1495000879040198e+00 +0.0000000000000000e+00 -1.1108886374577500e+01 -2.9524278907239861e-02 -5.6509193026579241e-01 +5.6577760658243848e-03
-1.1199999999999999e+01 +8.1494367423620098e+00 +0.0000000000000000e+00 -1.1208966418581401e+01 -2.9524109419491778e-02 -5.6509263259790743e-01 +5.6577826582126702e-03
-1.1300000000000001e+01 +8.1493728287059604e+00 +0.0000000000000000e+00 -1.1309046462224000e+01 -2.9523941917093271e-02 -5.6509334604003436e-01 +5.6577891754545613e-03
-1.1400000000000000e+01 +8.1493083469249505e+00 +0.0000000000000000e+00 -1.1409126505502300e+01 -2.9523776872992760e-02 -5.6509406922023808e-01 +5.6577954212748719e-03
-1.1500000000000000e+01 +8.1492432970226201e+00 +0.0000000000000000e+00 -1.1509206548412800e+01 -2.9523614760103990e-02 -5.6509480076642460e-01 +5.6578011994037102e-03
-1.1600000000000000e+01 +8.1491776789989707e+00 +0.0000000000000000e+00 -1.1609286590952600e+01 -2.9523456051312697e-02 -5.6509553930647993e-01 +5.6578063135780060e-03
-1.1699999999999999e+01 +8.1491114928576298e+00 +0.0000000000000000e+00 -1.1709366633118099e+01 -2.9523301219473150e-02 -5.6509628346821428e-01 +5.6578105675410360e-03
