# trajectory
# s[mm] rx[mm] ry[mm] rz[mm] px[rad] py[rad] pz[rad]
0.0000000000000000e+00 +7.9199999999999999e+00 +0.0000000000000000e+00 +0.0000000000000000e+00 +0.0000000000000000e+00 +0.0000000000000000e+00 +1.0000000000000000e+00
1.0000000000000001e-01 +7.9199997167709073e+00 +0.0000000000000000e+00 +9.9999999999465197e-02 -5.6645816312874261e-06 +0.0000000000000000e+00 +9.9999999998395628e-01
2.0000000000000001e-01 +7.9199988670837138e+00 +0.0000000000000000e+00 +1.9999999999572166e-01 -1.1329162053451326e-05 +0.0000000000000000e+00 +9.9999999993582511e-01
3.0000000000000004e-01 +7.9199974509385296e+00 +0.0000000000000000e+00 +2.9999999998556059e-01 -1.6993741485717496e-05 +0.0000000000000000e+00 +9.9999999985560639e-01
4.0000000000000002e-01 +7.9199954683354425e+00 +0.0000000000000000e+00 +3.9999999996577335e-01 -2.2658320131524770e-05 +0.0000000000000000e+00 +9.9999999974330023e-01
5.0000000000000000e-01 +7.9199929192745229e+00 +0.0000000000000000e+00 +4.9999999993315108e-01 -2.8322898178525130e-05 +0.0000000000000000e+00 +9.9999999959890673e-01
5.9999999999999998e-01 +7.9199898037558212e+00 +0.0000000000000000e+00 +5.9999999988448505e-01 -3.3987475798583833e-05 +0.0000000000000000e+00 +9.9999999942242579e-01
6.9999999999999996e-01 +7.9199861217793721e+00 +0.0000000000000000e+00 +6.9999999981656658e-01 -3.9652053147779478e-05 +0.0000000000000000e+00 +9.9999999921385740e-01
7.9999999999999993e-01 +7.9199818733451961e+00 +0.0000000000000000e+00 +7.9999999972618696e-01 -4.5316630366404106e-05 +0.0000000000000000e+00 +9.9999999897320158e-01
8.9999999999999991e-01 +7.9199770584532994e+00 +0.0000000000000000e+00 +8.9999999961013732e-01 -5.0981207578963240e-05 +0.0000000000000000e+00 +9.9999999870045830e-01
9.9999999999999989e-01 +7.9199716771036766e+00 +0.0000000000000000e+00 +9.9999999946520901e-01 -5.6645784894175930e-05 +0.0000000000000000e+00 +9.9999999839562759e-01
1.0999999999999999e+00 +7.9199657292963135e+00 +0.0000000000000000e+00 +1.0999999992881933e+00 -6.2310362404974755e-05 +0.0000000000000000e+00 +9.9999999805870943e-01
1.2000000000000000e+00 +7.9199592150311862e+00 +0.0000000000000000e+00 +1.1999999990758814e+00 -6.7974940188505862e-05 +0.0000000000000000e+00 +9.9999999768970382e-01
1.3000000000000000e+00 +7.9199521343082644e+00 +0.0000000000000000e+00 +1.2999999988250646e+00 -7.3639518306128937e-05 +0.0000000000000000e+00 +9.9999999728861078e-01
1.4000000000000001e+00 +7.9199444871275126e+00 +0.0000000000000000e+00 +1.3999999985325340e+00 -7.9304096803417155e-05 +0.0000000000000000e+00 +9.9999999685543017e-01
1.5000000000000002e+00 +7.9199362734888901e+00 +0.0000000000000000e+00 +1.4999999981950809e+00 -8.4968675710157143e-05 +0.0000000000000000e+00 +9.9999999639016213e-01
1.6000000000000003e+00 +7.9199274933923558e+00 +0.0000000000000000e+00 +1.5999999978094968e+00 -9.0633255040348931e-05 +0.0000000000000000e+00 +9.9999999589280664e-01
1.7000000000000004e+00 +7.9199181468378672e+00 +0.0000000000000000e+00 +1.6999999973725726e+00 -9.6297834792205851e-05 +0.0000000000000000e+00 +9.9999999536336359e-01
1.8000000000000005e+00 +7.9199082338253834e+00 +0.0000000000000000e+00 +1.7999999968810998e+00 -1.0196241494815443e-04 +0.0000000000000000e+00 +9.9999999480183310e-01
1.9000000000000006e+00 +7.9198977543548654e+00 +0.0000000000000000e+00 +1.8999999963318697e+00 -1.0762699547483431e-04 +0.0000000000000000e+00 +9.9999999420821506e-01
2.0000000000000004e+00 +7.9198867084262776e+00 +0.0000000000000000e+00 +1.9999999957216732e+00 -1.1329157632309803e-04 +0.0000000000000000e+00 +9.9999999358250946e-01
2.1000000000000005e+00 +7.9198750960395916e+00 +0.0000000000000000e+00 +2.0999999950473018e+00 -1.1895615742881439e-04 +0.0000000000000000e+00 +9.9999999292471642e-01
2.2000000000000006e+00 +7.9198629171947852e+00 +0.0000000000000000e+00 +2.1999999943055468e+00 -1.2462073872170551e-04 +0.0000000000000000e+00 +9.9999999223483582e-01
2.3000000000000007e+00 +7.9198501718918433e+00 +0.0000000000000000e+00 +2.2999999934931994e+00 -1.3028532013418411e-04 +0.0000000000000000e+00 +9.9999999151286778e-01
2.4000000000000008e+00 +7.9198368601307569e+00 +0.0000000000000000e+00 +2.3999999926070510e+00 -1.3594990160215682e-04 +0.0000000000000000e+00 +9.9999999075881219e-01
2.5000000000000009e+00 +7.9198229819115236e+00 +0.0000000000000000e+00 +2.4999999916438926e+00 -1.4161448306502391e-04 +0.0000000000000000e+00 +9.9999998997266915e-01
2.6000000000000010e+00 +7.9198085372341467e+00 +0.0000000000000000e+00 +2.5999999906005153e+00 -1.4727906446567929e-04 +0.0000000000000000e+00 +9.9999998915443866e-01
2.7000000000000011e+00 +7.9197935260986343e+00 +0.0000000000000000e+00 +2.6999999894737106e+00 -1.5294364575051020e-04 +0.0000000000000000e+00 +9.9999998830412073e-01
2.8000000000000012e+00 +7.9197779485050015e+00 +0.0000000000000000e+00 +2.7999999882602697e+00 -1.5860822686939715e-04 +0.0000000000000000e+00 +9.9999998742171525e-01
2.9000000000000012e+00 +7.9197618044532669e+00 +0.0000000000000000e+00 +2.8999999869569839e+00 -1.6427280777571372e-04 +0.0000000000000000e+00 +9.9999998650722233e-01
3.0000000000000013e+00 +7.9197450939434546e+00 +0.0000000000000000e+00 +2.9999999855606445e+00 -1.6993738842632636e-04 +0.0000000000000000e+00 +9.9999998556064196e-01
3.1000000000000014e+00 +7.9197278169755920e+00 +0.0000000000000000e+00 +3.0999999840680426e+00 -1.7560196878159415e-04 +0.0000000000000000e+00 +9.9999998458197425e-01
3.2000000000000015e+00 +7.9197099735497094e+00 +0.0000000000000000e+00 +3.1999999824759695e+00 -1.8126654880536866e-04 +0.0000000000000000e+00 +9.9999998357121911e-01
3.3000000000000016e+00 +7.9196915636658431e+00 +0.0000000000000000e+00 +3.2999999807812168e+00 -1.8693112846499373e-04 +0.0000000000000000e+00 +9.9999998252837652e-01
3.4000000000000017e+00 +7.9196725873240297e+00 +0.0000000000000000e+00 +3.3999999789805755e+00 -1.9259570773130520e-04 +0.0000000000000000e+00 +9.9999998145344660e-01
3.5000000000000018e+00 +7.9196530445243107e+00 +0.0000000000000000e+00 +3.4999999770708365e+00 -1.9826028657863069e-04 +0.0000000000000000e+00 +9.9999998034642923e-01
3.6000000000000019e+00 +7.9196329352667290e+00 +0.0000000000000000e+00 +3.5999999750487914e+00 -2.0392486498478938e-04 +0.0000000000000000e+00 +9.9999997920732453e-01
3.7000000000000020e+00 +7.9196122595513296e+00 +0.0000000000000000e+00 +3.6999999729112316e+00 -2.0958944293109175e-04 +0.0000000000000000e+00 +9.9999997803613250e-01
3.8000000000000020e+00 +7.9195910173781590e+00 +0.0000000000000000e+00 +3.7999999706549481e+00 -2.1525402040233925e-04 +0.0000000000000000e+00 +9.9999997683285313e-01
3.9000000000000021e+00 +7.9195692087472658e+00 +0.0000000000000000e+00 +3.8999999682767323e+00 -2.2091859738682411e-04 +0.0000000000000000e+00 +9.9999997559748643e-01
4.0000000000000018e+00 +7.9195468336586980e+00 +0.0000000000000000e+00 +3.9999999657733758e+00 -2.2658317387632903e-04 +0.0000000000000000e+00 +9.9999997433003240e-01
4.1000000000000014e+00 +7.9195238921125064e+00 +0.0000000000000000e+00 +4.0999999631416690e+00 -2.3224774986615573e-04 +0.0000000000000000e+00 +9.9999997303049104e-01
4.2000000000000011e+00 +7.9195003841087415e+00 +0.0000000000000000e+00 +4.1999999603784044e+00 -2.3791232535544152e-04 +0.0000000000000000e+00 +9.9999997169886234e-01
4.3000000000000007e+00 +7.9194763096474521e+00 +0.0000000000000000e+00 +4.2999999574803720e+00 -2.4357690034747655e-04 +0.0000000000000000e+00 +9.9999997033514643e-01
4.4000000000000004e+00 +7.9194516687286880e+00 +0.0000000000000000e+00 +4.3999999544443638e+00 -2.4924147484973297e-04 +0.0000000000000000e+00 +9.9999996893934318e-01
4.5000000000000000e+00 +7.9194264613524981e+00 +0.0000000000000000e+00 +4.4999999512671707e+00 -2.5490604887386546e-04 +0.0000000000000000e+00 +9.9999996751145259e-01
4.5999999999999996e+00 +7.9194006875189285e+00 +0.0000000000000000e+00 +4.5999999479455846e+00 -2.6057062243571165e-04 +0.0000000000000000e+00 +9.9999996605147479e-01
4.6999999999999993e+00 +7.9193743472280254e+00 +0.0000000000000000e+00 +4.6999999444763967e+00 -2.6623519555529280e-04 +0.0000000000000000e+00 +9.9999996455940965e-01
4.7999999999999989e+00 +7.9193474404798314e+00 +0.0000000000000000e+00 +4.7999999408563978e+00 -2.7189976825681432e-04 +0.0000000000000000e+00 +9.9999996303525729e-01
4.8999999999999986e+00 +7.9193199672743866e+00 +0.0000000000000000e+00 +4.8999999370823790e+00 -2.7756434056866637e-04 +0.0000000000000000e+00 +9.9999996147901760e-01
4.9999999999999982e+00 +7.9192919276117291e+00 +0.0000000000000000e+00 +4.9999999331511322e+00 -2.8322891252342461e-04 +0.0000000000000000e+00 +9.9999995989069068e-01
5.0999999999999979e+00 +7.9192633214918926e+00 +0.0000000000000000e+00 +5.0999999290594475e+00 -2.8889348415785083e-04 +0.0000000000000000e+00 +9.9999995827027643e-01
5.1999999999999975e+00 +7.9192341489149065e+00 +0.0000000000000000e+00 +5.1999999248041178e+00 -2.9455805551289359e-04 +0.0000000000000000e+00 +9.9999995661777497e-01
5.2999999999999972e+00 +7.9192044098807974e+00 +0.0000000000000000e+00 +5.2999999203819330e+00 -3.0022262663368922e-04 +0.0000000000000000e+00 +9.9999995493318616e-01
5.3999999999999968e+00 +7.9191741043895858e+00 +0.0000000000000000e+00 +5.3999999157896852e+00 -3.0588719756956229e-04 +0.0000000000000000e+00 +9.9999995321651003e-01
5.4999999999999964e+00 +7.9191432324412876e+00 +0.0000000000000000e+00 +5.4999999110241653e+00 -3.1155176837402676e-04 +0.0000000000000000e+00 +9.9999995146774656e-01
5.5999999999999961e+00 +7.9191117940359135e+00 +0.0000000000000000e+00 +5.5999999060821652e+00 -3.1721633910478667e-04 +0.0000000000000000e+00 +9.9999994968689576e-01
5.6999999999999957e+00 +7.9190797891734670e+00 +0.0000000000000000e+00 +5.6999999009604752e+00 -3.2288090982373702e-04 +0.0000000000000000e+00 +9.9999994787395763e-01
5.7999999999999954e+00 +7.9190472178539464e+00 +0.0000000000000000e+00 +5.7999998956558869e+00 -3.2854548059696475e-04 +0.0000000000000000e+00 +9.9999994602893205e-01
5.8999999999999950e+00 +7.9190140800773428e+00 +0.0000000000000000e+00 +5.8999998901651916e+00 -3.3421005149474980e-04 +0.0000000000000000e+00 +9.9999994415181914e-01
5.9999999999999947e+00 +7.9189803758436401e+00 +0.0000000000000000e+00 +5.9999998844851810e+00 -3.3987462259156591e-04 +0.0000000000000000e+00 +9.9999994224261879e-01
6.0999999999999943e+00 +7.9189461051528145e+00 +0.0000000000000000e+00 +6.0999998786126461e+00 -3.4553919396566781e-04 +0.0000000000000000e+00 +9.9999994030133088e-01
6.1999999999999940e+00 +7.9189112680048348e+00 +0.0000000000000000e+00 +6.1999998725443781e+00 -3.5120376569453742e-04 +0.0000000000000000e+00 +9.9999993832795553e-01
6.2999999999999936e+00 +7.9188758643996611e+00 +0.0000000000000000e+00 +6.2999998662771679e+00 -3.5686833785032957e-04 +0.0000000000000000e+00 +9.9999993632249262e-01
6.3999999999999932e+00 +7.9188398943372480e+00 +0.0000000000000000e+00 +6.3999998598078074e+00 -3.6253291049945729e-04 +0.0000000000000000e+00 +9.9999993428494216e-01
6.4999999999999929e+00 +7.9188033578175432e+00 +0.0000000000000000e+00 +6.4999998531330867e+00 -3.6819748370259161e-04 +0.0000000000000000e+00 +9.9999993221530414e-01
6.5999999999999925e+00 +7.9187662548404880e+00 +0.0000000000000000e+00 +6.5999998462497986e+00 -3.7386205751466076e-04 +0.0000000000000000e+00 +9.9999993011357846e-01
6.6999999999999922e+00 +7.9187285854060185e+00 +0.0000000000000000e+00 +6.6999998391547333e+00 -3.7952663198484985e-04 +0.0000000000000000e+00 +9.9999992797976511e-01
6.7999999999999918e+00 +7.9186903495140673e+00 +0.0000000000000000e+00 +6.7999998318446817e+00 -3.8519120715660026e-04 +0.0000000000000000e+00 +9.9999992581386410e-01
6.8999999999999915e+00 +7.9186515471645622e+00 +0.0000000000000000e+00 +6.8999998243164358e+00 -3.9085578306760892e-04 +0.0000000000000000e+00 +9.9999992361587542e-01
6.9999999999999911e+00 +7.9186121783574279e+00 +0.0000000000000000e+00 +6.9999998165667865e+00 -3.9652035974982789e-04 +0.0000000000000000e+00 +9.9999992138579896e-01
7.0999999999999908e+00 +7.9185722430925853e+00 +0.0000000000000000e+00 +7.0999998085925258e+00 -4.0218493722946351e-04 +0.0000000000000000e+00 +9.9999991912363473e-01
7.1999999999999904e+00 +7.9185317413699545e+00 +0.0000000000000000e+00 +7.1999998003904437e+00 -4.0784951552697593e-04 +0.0000000000000000e+00 +9.9999991682938272e-01
7.2999999999999901e+00 +7.9184906731894520e+00 +0.0000000000000000e+00 +7.2999997919573323e+00 -4.1351409465707821e-04 +0.0000000000000000e+00 +9.9999991450304293e-01
7.3999999999999897e+00 +7.9184490385509951e+00 +0.0000000000000000e+00 +7.3999997832899824e+00 -4.1917867462873577e-04 +0.0000000000000000e+00 +9.9999991214461537e-01
7.4999999999999893e+00 +7.9184068374544987e+00 +0.0000000000000000e+00 +7.4999997743851852e+00 -4.2484325544516545e-04 +0.0000000000000000e+00 +9.9999990975409991e-01
7.5999999999999890e+00 +7.9183640698998783e+00 +0.0000000000000000e+00 +7.5999997652397324e+00 -4.3050783710383488e-04 +0.0000000000000000e+00 +9.9999990733149668e-01
7.6999999999999886e+00 +7.9183207358870504e+00 +0.0000000000000000e+00 +7.6999997558504152e+00 -4.3617241959646155e-04 +0.0000000000000000e+00 +9.9999990487680557e-01
7.7999999999999883e+00 +7.9182768354159316e+00 +0.0000000000000000e+00 +7.7999997462140245e+00 -4.4183700290901205e-04 +0.0000000000000000e+00 +9.9999990239002656e-01
7.8999999999999879e+00 +7.9182323684864420e+00 +0.0000000000000000e+00 +7.8999997363273513e+00 -4.4750158702170116e-04 +0.0000000000000000e+00 +9.9999989987115967e-01
7.9999999999999876e+00 +7.9181873350985015e+00 +0.0000000000000000e+00 +7.9999997261871867e+00 -4.5316617190899091e-04 +0.0000000000000000e+00 +9.9999989732020489e-01
8.0999999999999872e+00 +7.9181417352520347e+00 +0.0000000000000000e+00 +8.0999997157903216e+00 -4.5883075754042717e-04 +0.0000000000000000e+00 +9.9999989473716222e-01
8.1999999999999869e+00 +7.9180955689469688e+00 +0.0000000000000000e+00 +8.1999997051335480e+00 -4.6449534388985089e-04 +0.0000000000000000e+00 +9.9999989212203177e-01
8.2999999999999865e+00 +7.9180488361832326e+00 +0.0000000000000000e+00 +8.2999996942136569e+00 -4.7015993094461002e-04 +0.0000000000000000e+00 +9.9999988947481344e-01
8.3999999999999861e+00 +7.9180015369607561e+00 +0.0000000000000000e+00 +8.3999996830274402e+00 -4.7582451870639686e-04 +0.0000000000000000e+00 +9.9999988679550722e-01
8.4999999999999858e+00 +7.9179536712794674e+00 +0.0000000000000000e+00 +8.4999996715716879e+00 -4.8148910719124783e-04 +0.0000000000000000e+00 +9.9999988408411300e-01
8.5999999999999854e+00 +7.9179052391392926e+00 +0.0000000000000000e+00 +8.5999996598431920e+00 -4.8715369642954363e-04 +0.0000000000000000e+00 +9.9999988134063089e-01
8.6999999999999851e+00 +7.9178562405401545e+00 +0.0000000000000000e+00 +8.6999996478387445e+00 -4.9281828646600902e-04 +0.0000000000000000e+00 +9.9999987856506078e-01
8.7999999999999847e+00 +7.9178066754819705e+00 +0.0000000000000000e+00 +8.7999996355551353e+00 -4.9848287735971273e-04 +0.0000000000000000e+00 +9.9999987575740268e-01
8.8999999999999844e+00 +7.9177565439646518e+00 +0.0000000000000000e+00 +8.8999996229891565e+00 -5.0414746918406761e-04 +0.0000000000000000e+00 +9.9999987291765646e-01
8.9999999999999840e+00 +7.9177058459880998e+00 +0.0000000000000000e+00 +8.9999996101375981e+00 -5.0981206202683018e-04 +0.0000000000000000e+00 +9.9999987004582214e-01
9.0999999999999837e+00 +7.9176545815522088e+00 +0.0000000000000000e+00 +9.0999995969972520e+00 -5.1547665599010095e-04 +0.0000000000000000e+00 +9.9999986714189959e-01
9.1999999999999833e+00 +7.9176027506568607e+00 +0.0000000000000000e+00 +9.1999995835649084e+00 -5.2114125119032411e-04 +0.0000000000000000e+00 +9.9999986420588882e-01
9.2999999999999829e+00 +7.9175503533019249e+00 +0.0000000000000000e+00 +9.2999995698373592e+00 -5.2680584775828749e-04 +0.0000000000000000e+00 +9.9999986123778961e-01
9.3999999999999826e+00 +7.9174973894872585e+00 +0.0000000000000000e+00 +9.3999995558113962e+00 -5.3247044583912251e-04 +0.0000000000000000e+00 +9.9999985823760196e-01
9.4999999999999822e+00 +7.9174438592127014e+00 +0.0000000000000000e+00 +9.4999995414838097e+00 -5.3813504559230415e-04 +0.0000000000000000e+00 +9.9999985520532575e-01
9.5999999999999819e+00 +7.9173897624780780e+00 +0.0000000000000000e+00 +9.5999995268513914e+00 -5.4379964719165072e-04 +0.0000000000000000e+00 +9.9999985214096077e-01
9.6999999999999815e+00 +7.9173350992831946e+00 +0.0000000000000000e+00 +9.6999995119109315e+00 -5.4946425082532410e-04 +0.0000000000000000e+00 +9.9999984904450701e-01
9.7999999999999812e+00 +7.9172798696278379e+00 +0.0000000000000000e+00 +9.7999994966592219e+00 -5.5512885669582940e-04 +0.0000000000000000e+00 +9.9999984591596425e-01
9.8999999999999808e+00 +7.9172240735117736e+00 +0.0000000000000000e+00 +9.8999994810930545e+00 -5.6079346502001487e-04 +0.0000000000000000e+00 +9.9999984275533227e-01
9.9999999999999805e+00 +7.9171677109347449e+00 +0.0000000000000000e+00 +9.9999994652092195e+00 -5.6645807602907197e-04 +0.0000000000000000e+00 +9.9999983956261107e-01
1.0099999999999980e+01 +7.9171107818964703e+00 +0.0000000000000000e+00 +1.0099999449004507e+01 -5.7212268996726344e-04 +0.0000000000000000e+00 +9.9999983633780032e-01
1.0199999999999980e+01 +7.9170532863966452e+00 +0.0000000000000000e+00 +1.0199999432475709e+01 -5.7778730707793390e-04 +0.0000000000000000e+00 +9.9999983308089990e-01
1.0299999999999979e+01 +7.9169952244349409e+00 +0.0000000000000000e+00 +1.0299999415619617e+01 -5.8345192758951997e-04 +0.0000000000000000e+00 +9.9999982979190960e-01
1.0399999999999979e+01 +7.9169365960110065e+00 +0.0000000000000000e+00 +1.0399999398433021e+01 -5.8911655171427896e-04 +0.0000000000000000e+00 +9.9999982647082919e-01
1.0499999999999979e+01 +7.9168774011244709e+00 +0.0000000000000000e+00 +1.0499999380912714e+01 -5.9478117964828926e-04 +0.0000000000000000e+00 +9.9999982311765856e-01
1.0599999999999978e+01 +7.9168176397749441e+00 +0.0000000000000000e+00 +1.0599999363055485e+01 -6.0044581157145057e-04 +0.0000000000000000e+00 +9.9999981973239749e-01
1.0699999999999978e+01 +7.9167573119620185e+00 +0.0000000000000000e+00 +1.0699999344858124e+01 -6.0611044764748428e-04 +0.0000000000000000e+00 +9.9999981631504586e-01
1.0799999999999978e+01 +7.9166964176852712e+00 +0.0000000000000000e+00 +1.0799999326317424e+01 -6.1177508802393379e-04 +0.0000000000000000e+00 +9.9999981286560347e-01
1.0899999999999977e+01 +7.9166349569442662e+00 +0.0000000000000000e+00 +1.0899999307430175e+01 -6.1743973283216519e-04 +0.0000000000000000e+00 +9.9999980938407018e-01
1.0999999999999977e+01 +7.9165729297385532e+00 +0.0000000000000000e+00 +1.0999999288193168e+01 -6.2310438218736723e-04 +0.0000000000000000e+00 +9.9999980587044579e-01
1.1099999999999977e+01 +7.9165103360676738e+00 +0.0000000000000000e+00 +1.1099999268603193e+01 -6.2876903618855199e-04 +0.0000000000000000e+00 +9.9999980232473018e-01
1.1199999999999976e+01 +7.9164471759311583e+00 +0.0000000000000000e+00 +1.1199999248657043e+01 -6.3443369491855521e-04 +0.0000000000000000e+00 +9.9999979874692324e-01
1.1299999999999976e+01 +7.9163834493285306e+00 +0.0000000000000000e+00 +1.1299999228351508e+01 -6.4009835844403668e-04 +0.0000000000000000e+00 +9.9999979513702486e-01
1.1399999999999975e+01 +7.9163191562593083e+00 +0.0000000000000000e+00 +1.1399999207683379e+01 -6.4576302681548076e-04 +0.0000000000000000e+00 +9.9999979149503493e-01
1.1499999999999975e+01 +7.9162542967230047e+00 +0.0000000000000000e+00 +1.1499999186649447e+01 -6.5142770006719670e-04 +0.0000000000000000e+00 +9.9999978782095333e-01
1.1599999999999975e+01 +7.9161888707191315e+00 +0.0000000000000000e+00 +1.1599999165246501e+01 -6.5709237821731930e-04 +0.0000000000000000e+00 +9.9999978411477997e-01
1.1699999999999974e+01 +7.9161228782471982e+00 +0.0000000000000000e+00 +1.1699999143471333e+01 -6.6275706126780901e-04 +0.0000000000000000e+00 +9.9999978037651482e-01
1.1799999999999974e+01 +7.9160563193067155e+00 +0.0000000000000000e+00 +1.1799999121320734e+01 -6.6842174920445259e-04 +0.0000000000000000e+00 +9.9999977660615769e-01
