# field on trajectory
# s[mm] rx[mm] ry[mm] rz[mm] bx[T] by[T] bz[T]
0.0000000000000000e+00 +8.1649999999999991e+00 +0.0000000000000000e+00 +0.0000000000000000e+00 -2.9283543815492474e-02 -5.3655190620499549e-01 +5.3026450046615523e-03
-1.0000000000000001e-01 +8.1649997170681043e+00 +0.0000000000000000e+00 -9.9999999999466321e-02 -2.9283357062535497e-02 -5.3655194039346077e-01 +5.3026235548017204e-03
-2.0000000000000001e-01 +8.1649988682723986e+00 +0.0000000000000000e+00 -1.9999999999573062e-01 -2.9283175617109480e-02 -5.3655197218503459e-01 +5.3026055845558076e-03
-3.0000000000000004e-01 +8.1649974536128482e+00 +0.0000000000000000e+00 -2.9999999998559090e-01 -2.9282999415340103e-02 -5.3655200237732992e-01 +5.3025908641093729e-03
-4.0000000000000002e-01 +8.1649954730894212e+00 +0.0000000000000000e+00 -3.9999999996584512e-01 -2.9282828393345544e-02 -5.3655203176795474e-01 +5.3025791636487222e-03
-5.0000000000000000e-01 +8.1649929267020855e+00 +0.0000000000000000e+00 -4.9999999993329125e-01 -2.9282662487237592e-02 -5.3655206115451481e-01 +5.3025702533608205e-03
-5.9999999999999998e-01 +8.1649898144508111e+00 +0.0000000000000000e+00 -5.9999999988472730e-01 -2.9282501633122640e-02 -5.3655209133461346e-01 +5.3025639034331804e-03
-6.9999999999999996e-01 +8.1649861363355658e+00 +0.0000000000000000e+00 -6.9999999981695127e-01 -2.9282345767102806e-02 -5.3655212310585321e-01 +5.3025598840537608e-03
-7.9999999999999993e-01 +8.1649818923563178e+00 +0.0000000000000000e+00 -7.9999999972676106e-01 -2.9282194825276935e-02 -5.3655215726583594e-01 +5.3025579654108765e-03
-8.9999999999999991e-01 +8.1649770825130297e+00 +0.0000000000000000e+00 -8.9999999961095467e-01 -2.9282048743741719e-02 -5.3655219461216452e-01 +5.3025579176930885e-03
-9.9999999999999989e-01 +8.1649717068056624e+00 +0.0000000000000000e+00 -9.9999999946633011e-01 -2.9281907458592649e-02 -5.3655223594244272e-01 +5.3025595110890921e-03
-1.0999999999999999e+00 +8.1649657652341716e+00 +0.0000000000000000e+00 -1.0999999992896854e+00 -2.9281770905925191e-02 -5.3655228205427730e-01 +5.3025625157876377e-03
-1.2000000000000000e+00 +8.1649592577985093e+00 +0.0000000000000000e+00 -1.1999999990778183e+00 -2.9281639021835778e-02 -5.3655233374527900e-01 +5.3025667019774162e-03
-1.3000000000000000e+00 +8.1649521844986221e+00 +0.0000000000000000e+00 -1.2999999988275270e+00 -2.9281511742422838e-02 -5.3655239181306180e-01 +5.3025718398469592e-03
-1.4000000000000001e+00 +8.1649445453344480e+00 +0.0000000000000000e+00 -1.3999999985356095e+00 -2.9281389003787940e-02 -5.3655245705524557e-01 +5.3025776995845337e-03
-1.5000000000000002e+00 +8.1649363403059176e+00 +0.0000000000000000e+00 -1.4999999981988636e+00 -2.9281270742036715e-02 -5.3655253026945615e-01 +5.3025840513780450e-03
-1.6000000000000003e+00 +8.1649275694129546e+00 +0.0000000000000000e+00 -1.5999999978140873e+00 -2.9281156893280078e-02 -5.3655261225332584e-01 +5.3025906654149404e-03
-1.7000000000000004e+00 +8.1649182326554737e+00 +0.0000000000000000e+00 -1.6999999973780786e+00 -2.9281047393635136e-02 -5.3655270380449638e-01 +5.3025973118820957e-03
-1.8000000000000005e+00 +8.1649083300333771e+00 +0.0000000000000000e+00 -1.7999999968876355e+00 -2.9280942179226336e-02 -5.3655280572061670e-01 +5.3026037609657300e-03
-1.9000000000000006e+00 +8.1648978615465584e+00 +0.0000000000000000e+00 -1.8999999963395560e+00 -2.9280841186186467e-02 -5.3655291879934641e-01 +5.3026097828512853e-03
-2.0000000000000004e+00 +8.1648868271948984e+00 +0.0000000000000000e+00 -1.9999999957306380e+00 -2.9280744350657747e-02 -5.3655304383835589e-01 +5.3026151477233380e-03
-2.1000000000000005e+00 +8.1648752269782658e+00 +0.0000000000000000e+00 -2.0999999950576793e+00 -2.9280651570261447e-02 -5.3655318136699182e-01 +5.3026197191207158e-03
-2.2000000000000006e+00 +8.1648630608965167e+00 +0.0000000000000000e+00 -2.1999999943174782e+00 -2.9280562588497625e-02 -5.3655333084126355e-01 +5.3026237340025031e-03
-2.3000000000000007e+00 +8.1648503289494929e+00 +0.0000000000000000e+00 -2.2999999935068325e+00 -2.9280477110326920e-02 -5.3655349144883657e-01 +5.3026275226830911e-03
-2.4000000000000008e+00 +8.1648370311370240e+00 +0.0000000000000000e+00 -2.3999999926225399e+00 -2.9280394840698977e-02 -5.3655366237736268e-01 +5.3026314154770810e-03
-2.5000000000000009e+00 +8.1648231674589322e+00 +0.0000000000000000e+00 -2.4999999916613986e+00 -2.9280315484550987e-02 -5.3655384281447926e-01 +5.3026357426993282e-03
-2.6000000000000010e+00 +8.1648087379150276e+00 +0.0000000000000000e+00 -2.5999999906202067e+00 -2.9280238746806287e-02 -5.3655403194780604e-01 +5.3026408346649899e-03
-2.7000000000000011e+00 +8.1647937425051111e+00 +0.0000000000000000e+00 -2.6999999894957618e+00 -2.9280164332372953e-02 -5.3655422896494498e-01 +5.3026470216895770e-03
-2.8000000000000012e+00 +8.1647781812289750e+00 +0.0000000000000000e+00 -2.7999999882848616e+00 -2.9280091946142398e-02 -5.3655443305347694e-01 +5.3026546340889892e-03
-2.9000000000000012e+00 +8.1647620540864061e+00 +0.0000000000000000e+00 -2.8999999869843047e+00 -2.9280021292987971e-02 -5.3655464340096126e-01 +5.3026640021795789e-03
-3.0000000000000013e+00 +8.1647453610771805e+00 +0.0000000000000000e+00 -2.9999999855908883e+00 -2.9279952077763492e-02 -5.3655485919493218e-01 +5.3026754562781782e-03
-3.1000000000000014e+00 +8.1647281022010727e+00 +0.0000000000000000e+00 -3.0999999841014110e+00 -2.9279884005301886e-02 -5.3655507962289828e-01 +5.3026893267021560e-03
-3.2000000000000015e+00 +8.1647102774578517e+00 +0.0000000000000000e+00 -3.1999999825126704e+00 -2.9279816780413814e-02 -5.3655530387234085e-01 +5.3027059437694719e-03
-3.3000000000000016e+00 +8.1646918868472813e+00 +0.0000000000000000e+00 -3.2999999808214642e+00 -2.9279750107886152e-02 -5.3655553113071019e-01 +5.3027256377986996e-03
-3.4000000000000017e+00 +8.1646729303691217e+00 +0.0000000000000000e+00 -3.3999999790245905e+00 -2.9279683692480681e-02 -5.3655576058542698e-01 +5.3027487391091024e-03
-3.5000000000000018e+00 +8.1646534080231312e+00 +0.0000000000000000e+00 -3.4999999771188470e+00 -2.9279617238932621e-02 -5.3655599142387633e-01 +5.3027755780206548e-03
-3.6000000000000019e+00 +8.1646333198090684e+00 +0.0000000000000000e+00 -3.5999999751010319e+00 -2.9279550451949278e-02 -5.3655622283341031e-01 +5.3028064848541032e-03
-3.7000000000000020e+00 +8.1646126657266898e+00 +0.0000000000000000e+00 -3.6999999729679427e+00 -2.9279483036208538e-02 -5.3655645400134167e-01 +5.3028417899309999e-03
-3.8000000000000020e+00 +8.1645914457757520e+00 +0.0000000000000000e+00 -3.7999999707163776e+00 -2.9279414696357600e-02 -5.3655668411494628e-01 +5.3028818235737680e-03
-3.9000000000000021e+00 +8.1645696599560118e+00 +0.0000000000000000e+00 -3.8999999683431343e+00 -2.9279345137011421e-02 -5.3655691236145808e-01 +5.3029269161057246e-03
-4.0000000000000018e+00 +8.1645473082672311e+00 +0.0000000000000000e+00 -3.9999999658450109e+00 -2.9279274062751406e-02 -5.3655713792806847e-01 +5.3029773978511413e-03
-4.1000000000000014e+00 +8.1645243907091718e+00 +0.0000000000000000e+00 -4.0999999632188056e+00 -2.9279201165867800e-02 -5.3655736019195133e-01 +5.3030334898737271e-03
-4.2000000000000011e+00 +8.1645009072816013e+00 +0.0000000000000000e+00 -4.1999999604613150e+00 -2.9279126089611224e-02 -5.3655757929035441e-01 +5.3030949761911110e-03
-4.3000000000000007e+00 +8.1644768579842886e+00 +0.0000000000000000e+00 -4.2999999575693382e+00 -2.9279048464999215e-02 -5.3655779555055161e-01 +5.3031615315589946e-03
-4.4000000000000004e+00 +8.1644522428170063e+00 +0.0000000000000000e+00 -4.3999999545396724e+00 -2.9278967923080105e-02 -5.3655800929981889e-01 +5.3032328307328104e-03
-4.5000000000000000e+00 +8.1644270617795289e+00 +0.0000000000000000e+00 -4.4999999513691158e+00 -2.9278884094935485e-02 -5.3655822086543747e-01 +5.3033085484676893e-03
-4.5999999999999996e+00 +8.1644013148716343e+00 +0.0000000000000000e+00 -4.5999999480544655e+00 -2.9278796611682711e-02 -5.3655843057469454e-01 +5.3033883595184211e-03
-4.6999999999999993e+00 +8.1643750020931041e+00 +0.0000000000000000e+00 -4.6999999445925207e+00 -2.9278705104477352e-02 -5.3655863875488330e-01 +5.3034719386394298e-03
-4.7999999999999989e+00 +8.1643481234437179e+00 +0.0000000000000000e+00 -4.7999999409800784e+00 -2.9278609204515669e-02 -5.3655884573330470e-01 +5.3035589605847427e-03
-4.8999999999999986e+00 +8.1643206789232572e+00 +0.0000000000000000e+00 -4.8999999372139360e+00 -2.9278508543037107e-02 -5.3655905183726949e-01 +5.3036491001079581e-03
-4.9999999999999982e+00 +8.1642926685315071e+00 +0.0000000000000000e+00 -4.9999999332908924e+00 -2.9278402751326808e-02 -5.3655925739409815e-01 +5.3037420319622108e-03
-5.0999999999999979e+00 +8.1642640922682510e+00 +0.0000000000000000e+00 -5.0999999292077449e+00 -2.9278291460717996e-02 -5.3655946273112265e-01 +5.3038374309001459e-03
-5.1999999999999975e+00 +8.1642349501332738e+00 +0.0000000000000000e+00 -5.1999999249612916e+00 -2.9278174302594537e-02 -5.3655966817568679e-01 +5.3039349716738869e-03
-5.2999999999999972e+00 +8.1642052421263589e+00 +0.0000000000000000e+00 -5.2999999205483297e+00 -2.9278050908393381e-02 -5.3655987405514871e-01 +5.3040343290350058e-03
-5.3999999999999968e+00 +8.1641749682472913e+00 +0.0000000000000000e+00 -5.3999999159656573e+00 -2.9277920909607055e-02 -5.3656008069688055e-01 +5.3041351777344944e-03
-5.4999999999999964e+00 +8.1641441284958542e+00 +0.0000000000000000e+00 -5.4999999112100726e+00 -2.9277783937786114e-02 -5.3656028842827030e-01 +5.3042371925227138e-03
-5.5999999999999961e+00 +8.1641127228718275e+00 +0.0000000000000000e+00 -5.5999999062783727e+00 -2.9277639624541673e-02 -5.3656049757672331e-01 +5.3043400481494040e-03
-5.6999999999999957e+00 +8.1640807513749927e+00 +0.0000000000000000e+00 -5.6999999011673559e+00 -2.9277487601547792e-02 -5.3656070846966264e-01 +5.3044434193636174e-03
-5.7999999999999954e+00 +8.1640482140051294e+00 +0.0000000000000000e+00 -5.7999998958738201e+00 -2.9277327500544056e-02 -5.3656092143453071e-01 +5.3045469809137021e-03
-5.8999999999999950e+00 +8.1640151107620120e+00 +0.0000000000000000e+00 -5.8999998903945627e+00 -2.9277158953337965e-02 -5.3656113679879003e-01 +5.3046504075472782e-03
-5.9999999999999947e+00 +8.1639814416454168e+00 +0.0000000000000000e+00 -5.9999998847263818e+00 -2.9276981591807458e-02 -5.3656135488992451e-01 +5.3047533740111941e-03
-6.0999999999999943e+00 +8.1639472066551129e+00 +0.0000000000000000e+00 -6.0999998788660754e+00 -2.9276795240788550e-02 -5.3656157602956911e-01 +5.3048556198633228e-03
-6.1999999999999940e+00 +8.1639124057908692e+00 +0.0000000000000000e+00 -6.1999998728104408e+00 -2.9276600496704143e-02 -5.3656180051589131e-01 +5.3049571439093730e-03
-6.2999999999999936e+00 +8.1638770390524495e+00 +0.0000000000000000e+00 -6.2999998665562762e+00 -2.9276398148852165e-02 -5.3656202864120650e-01 +5.3050580097678884e-03
-6.3999999999999932e+00 +8.1638411064396141e+00 +0.0000000000000000e+00 -6.3999998601003796e+00 -2.9276188986509851e-02 -5.3656226069784885e-01 +5.3051582810581237e-03
-6.4999999999999929e+00 +8.1638046079521196e+00 +0.0000000000000000e+00 -6.4999998534395482e+00 -2.9275973798932379e-02 -5.3656249697817404e-01 +5.3052580214000972e-03
-6.5999999999999925e+00 +8.1637675435897190e+00 +0.0000000000000000e+00 -6.5999998465705794e+00 -2.9275753375351404e-02 -5.3656273777455854e-01 +5.3053572944146013e-03
-6.6999999999999922e+00 +8.1637299133521584e+00 +0.0000000000000000e+00 -6.6999998394902720e+00 -2.9275528504973721e-02 -5.3656298337940123e-01 +5.3054561637232408e-03
-6.7999999999999918e+00 +8.1636917172391801e+00 +0.0000000000000000e+00 -6.7999998321954234e+00 -2.9275299976979832e-02 -5.3656323408512452e-01 +5.3055546929484726e-03
-6.8999999999999915e+00 +8.1636529552505195e+00 +0.0000000000000000e+00 -6.8999998246828307e+00 -2.9275068580522517e-02 -5.3656349018417449e-01 +5.3056529457136108e-03
-6.9999999999999911e+00 +8.1636136273859101e+00 +0.0000000000000000e+00 -6.9999998169492921e+00 -2.9274835104725457e-02 -5.3656375196902295e-01 +5.3057509856428865e-03
-7.0999999999999908e+00 +8.1635737336450767e+00 +0.0000000000000000e+00 -7.0999998089916057e+00 -2.9274600338681834e-02 -5.3656401973216683e-01 +5.3058488763614575e-03
-7.1999999999999904e+00 +8.1635332740277367e+00 +0.0000000000000000e+00 -7.1999998008065687e+00 -2.9274365071452903e-02 -5.3656429376613013e-01 +5.3059466814954458e-03
-7.2999999999999901e+00 +8.1634922485336041e+00 +0.0000000000000000e+00 -7.2999997923909792e+00 -2.9274130092066589e-02 -5.3656457436346461e-01 +5.3060444646719634e-03
-7.3999999999999897e+00 +8.1634506571623824e+00 +0.0000000000000000e+00 -7.3999997837416345e+00 -2.9273896189516129e-02 -5.3656486181675045e-01 +5.3061422895191446e-03
-7.4999999999999893e+00 +8.1634084999137713e+00 +0.0000000000000000e+00 -7.4999997748553326e+00 -2.9273664152758599e-02 -5.3656515641859748e-01 +5.3062402196661839e-03
-7.5999999999999890e+00 +8.1633657767874599e+00 +0.0000000000000000e+00 -7.5999997657288709e+00 -2.9273434770713546e-02 -5.3656545846164516e-01 +5.3063383187433484e-03
-7.6999999999999886e+00 +8.1633224877831321e+00 +0.0000000000000000e+00 -7.6999997563590474e+00 -2.9273208832261598e-02 -5.3656576823856561e-01 +5.3064366503820220e-03
-7.7999999999999883e+00 +8.1632786329004627e+00 +0.0000000000000000e+00 -7.7999997467426603e+00 -2.9272987126243034e-02 -5.3656608604206202e-01 +5.3065352782147284e-03
-7.8999999999999879e+00 +8.1632342121391179e+00 +0.0000000000000000e+00 -7.8999997368765058e+00 -2.9272770441456389e-02 -5.3656641216487033e-01 +5.3066342658751623e-03
-7.9999999999999876e+00 +8.1631892254987548e+00 +0.0000000000000000e+00 -7.9999997267573830e+00 -2.9272559566657055e-02 -5.3656674689976125e-01 +5.3067336769982171e-03
-8.0999999999999872e+00 +8.1631436729790217e+00 +0.0000000000000000e+00 -8.0999997163820883e+00 -2.9272355193024100e-02 -5.3656709053798879e-01 +5.3068335793470716e-03
-8.1999999999999869e+00 +8.1630975545795579e+00 +0.0000000000000000e+00 -8.1999997057474197e+00 -2.9272157621568182e-02 -5.3656744336463769e-01 +5.3069340571943683e-03
-8.2999999999999865e+00 +8.1630508702999922e+00 +0.0000000000000000e+00 -8.2999996948501753e+00 -2.9271967055740793e-02 -5.3656780566327600e-01 +5.3070351989407518e-03
-8.3999999999999861e+00 +8.1630036201399445e+00 +0.0000000000000000e+00 -8.3999996836871524e+00 -2.9271783698968851e-02 -5.3656817771750553e-01 +5.3071370929877303e-03
-8.4999999999999858e+00 +8.1629558040990240e+00 +0.0000000000000000e+00 -8.4999996722551501e+00 -2.9271607754653987e-02 -5.3656855981096452e-01 +5.3072398277377022e-03
-8.5999999999999854e+00 +8.1629074221768292e+00 +0.0000000000000000e+00 -8.5999996605509637e+00 -2.9271439426171865e-02 -5.3656895222732670e-01 +5.3073434915939530e-03
-8.6999999999999851e+00 +8.1628584743729480e+00 +0.0000000000000000e+00 -8.6999996485713922e+00 -2.9271278916871490e-02 -5.3656935525030292e-01 +5.3074481729606946e-03
-8.7999999999999847e+00 +8.1628089606869558e+00 +0.0000000000000000e+00 -8.7999996363132329e+00 -2.9271126430074460e-02 -5.3656976916364219e-01 +5.3075539602430695e-03
-8.8999999999999844e+00 +8.1627588811184193e+00 +0.0000000000000000e+00 -8.8999996237732830e+00 -2.9270982169074311e-02 -5.3657019425113128e-01 +5.3076609418471676e-03
-8.9999999999999840e+00 +8.1627082356668907e+00 +0.0000000000000000e+00 -8.9999996109483398e+00 -2.9270846337135822e-02 -5.3657063079659728e-01 +5.3077692061800430e-03
-9.0999999999999837e+00 +8.1626570243319119e+00 +0.0000000000000000e+00 -9.0999995978352022e+00 -2.9270719137494291e-02 -5.3657107908390678e-01 +5.3078788416497467e-03
-9.1999999999999833e+00 +8.1626052471130102e+00 +0.0000000000000000e+00 -9.1999995844306657e+00 -2.9270600773354850e-02 -5.3657153939696767e-01 +5.3079899366653234e-03
-9.2999999999999829e+00 +8.1625529040097025e+00 +0.0000000000000000e+00 -9.2999995707315293e+00 -2.9270491447891768e-02 -5.3657201201972937e-01 +5.3081025796368354e-03
-9.3999999999999826e+00 +8.1624999950214931e+00 +0.0000000000000000e+00 -9.3999995567345902e+00 -2.9270391364247732e-02 -5.3657249723618383e-01 +5.3082168589753901e-03
-9.4999999999999822e+00 +8.1624465201478706e+00 +0.0000000000000000e+00 -9.4999995424366457e+00 -2.9270300725533188e-02 -5.3657299533036629e-01 +5.3083328630931358e-03
-9.5999999999999819e+00 +8.1623924793883127e+00 +0.0000000000000000e+00 -9.5999995278344930e+00 -2.9270219734825596e-02 -5.3657350658635650e-01 +5.3084506804033111e-03
-9.6999999999999815e+00 +8.1623378727422811e+00 +0.0000000000000000e+00 -9.6999995129249292e+00 -2.9270148595168740e-02 -5.3657403128827885e-01 +5.3085703993202187e-03
-9.7999999999999812e+00 +8.1622827002092233e+00 +0.0000000000000000e+00 -9.7999994977047518e+00 -2.9270087509572051e-02 -5.3657456972030293e-01 +5.3086921082592898e-03
-9.8999999999999808e+00 +8.1622269617885745e+00 +0.0000000000000000e+00 -9.8999994821707595e+00 -2.9270036681009897e-02 -5.3657512216664605e-01 +5.3088158956370642e-03
-9.9999999999999805e+00 +8.1621706574797539e+00 +0.0000000000000000e+00 -9.9999994663197498e+00 -2.9269996312420842e-02 -5.3657568891157115e-01 +5.3089418498712274e-03
-1.0099999999999980e+01 +8.1621137872821645e+00 +0.0000000000000000e+00 -1.0099999450148518e+01 -2.9269966380435535e-02 -5.3657627003683905e-01 +5.3090700299466076e-03
-1.0199999999999980e+01 +8.1620563511951971e+00 +0.0000000000000000e+00 -1.0199999433653863e+01 -2.9269945956576570e-02 -5.3657686481400058e-01 +5.3092003771099214e-03
-1.0299999999999979e+01 +8.1619983492182246e+00 +0.0000000000000000e+00 -1.0299999416832582e+01 -2.9269933886131944e-02 -5.3657747231198683e-01 +5.3093328031703843e-03
-1.0399999999999979e+01 +8.1619397813506094e+00 +0.0000000000000000e+00 -1.0399999399681471e+01 -2.9269929014442513e-02 -5.3657809159965464e-01 +5.3094672199342410e-03
-1.0499999999999979e+01 +8.1618806475916994e+00 +0.0000000000000000e+00 -1.0499999382197329e+01 -2.9269930186903513e-02 -5.3657872174578614e-01 +5.3096035392047021e-03
-1.0599999999999978e+01 +8.1618209479408321e+00 +0.0000000000000000e+00 -1.0599999364376952e+01 -2.9269936248966004e-02 -5.3657936181908417e-01 +5.3097416727818448e-03
-1.0699999999999978e+01 +8.1617606823973343e+00 +0.0000000000000000e+00 -1.0699999346217139e+01 -2.9269946046138397e-02 -5.3658001088817153e-01 +5.3098815324625374e-03
-1.0799999999999978e+01 +8.1616998509605239e+00 +0.0000000000000000e+00 -1.0799999327714685e+01 -2.9269958423987916e-02 -5.3658066802158966e-01 +5.3100230300403605e-03
-1.0899999999999977e+01 +8.1616384536297097e+00 +0.0000000000000000e+00 -1.0899999308866390e+01 -2.9269972228142049e-02 -5.3658133228779414e-01 +5.3101660773055255e-03
-1.0999999999999977e+01 +8.1615764904041939e+00 +0.0000000000000000e+00 -1.0999999289669049e+01 -2.9269986304290157e-02 -5.3658200275515489e-01 +5.3103105860447860e-03
-1.1099999999999977e+01 +8.1615139612832710e+00 +0.0000000000000000e+00 -1.1099999270119458e+01 -2.9269999498184818e-02 -5.3658267849195185e-01 +5.3104564680413590e-03
-1.1199999999999976e+01 +8.1614508662662306e+00 +0.0000000000000000e+00 -1.1199999250214416e+01 -2.9270010655643414e-02 -5.3658335856637518e-01 +5.3106036350748448e-03
-1.1299999999999976e+01 +8.1613872053523568e+00 +0.0000000000000000e+00 -1.1299999229950721e+01 -2.9270018622549576e-02 -5.3658404204652077e-01 +5.3107519989211418e-03
-1.1399999999999975e+01 +8.1613229785409320e+00 +0.0000000000000000e+00 -1.1399999209325170e+01 -2.9270022244854685e-02 -5.3658472800039014e-01 +5.3109014713523727e-03
-1.1499999999999975e+01 +8.1612581858312350e+00 +0.0000000000000000e+00 -1.1499999188334558e+01 -2.9270020368579387e-02 -5.3658541549588690e-01 +5.3110519641367910e-03
-1.1599999999999975e+01 +8.1611928272225409e+00 +0.0000000000000000e+00 -1.1599999166975683e+01 -2.9270011839815032e-02 -5.3658610360081471e-01 +5.3112033890387106e-03
-1.1699999999999974e+01 +8.1611269027141287e+00 +0.0000000000000000e+00 -1.1699999145245343e+01 -2.9269995504725223e-02 -5.3658679138287579e-01 +5.3113556578184068e-03
