# field on trajectory
# s[mm] rx[mm] ry[mm] rz[mm] bx[T] by[T] bz[T]
0.0000000000000000e+00 +8.1649999999999991e+00 +0.0000000000000000e+00 +0.0000000000000000e+00 -2.7914501914552994e-02 -5.3658441635203746e-01 +5.3502707329648779e-03
-1.0000000000000001e-01 +8.1649997170509447e+00 +0.0000000000000000e+00 -9.9999999999466266e-02 -2.7914421724720549e-02 -5.3658455274495098e-01 +5.3502369815029201e-03
-2.0000000000000001e-01 +8.1649988682036838e+00 +0.0000000000000000e+00 -1.9999999999573009e-01 -2.7914353250620069e-02 -5.3658469467920866e-01 +5.3502051611524735e-03
-3.0000000000000004e-01 +8.1649974534580672e+00 +0.0000000000000000e+00 -2.9999999998558913e-01 -2.7914295699244786e-02 -5.3658484202001777e-01 +5.3501751397026934e-03
-4.0000000000000002e-01 +8.1649954728139402e+00 +0.0000000000000000e+00 -3.9999999996584096e-01 -2.7914248277595650e-02 -5.3658499463258502e-01 +5.3501467849423438e-03
-5.0000000000000000e-01 +8.1649929262711414e+00 +0.0000000000000000e+00 -4.9999999993328315e-01 -2.7914210192680405e-02 -5.3658515238211280e-01 +5.3501199646599296e-03
-5.9999999999999998e-01 +8.1649898138295036e+00 +0.0000000000000000e+00 -5.9999999988471320e-01 -2.7914180651512712e-02 -5.3658531513380059e-01 +5.3500945466438783e-03
-6.9999999999999996e-01 +8.1649861354888564e+00 +0.0000000000000000e+00 -6.9999999981692884e-01 -2.7914158861111257e-02 -5.3658548275284534e-01 +5.3500703986826695e-03
-7.9999999999999993e-01 +8.1649818912490222e+00 +0.0000000000000000e+00 -7.9999999972672753e-01 -2.7914144028498841e-02 -5.3658565510443923e-01 +5.3500473885650067e-03
-8.9999999999999991e-01 +8.1649770811098197e+00 +0.0000000000000000e+00 -8.9999999961090693e-01 -2.7914135360701513e-02 -5.3658583205377119e-01 +5.3500253840799653e-03
-9.9999999999999989e-01 +8.1649717050710642e+00 +0.0000000000000000e+00 -9.9999999946626450e-01 -2.7914132064747681e-02 -5.3658601346602486e-01 +5.3500042530171500e-03
-1.0999999999999999e+00 +8.1649657631325621e+00 +0.0000000000000000e+00 -1.0999999992895979e+00 -2.7914133347667205e-02 -5.3658619920638018e-01 +5.3499838631668462e-03
-1.2000000000000000e+00 +8.1649592552941197e+00 +0.0000000000000000e+00 -1.1999999990777046e+00 -2.7914138416490510e-02 -5.3658638914001011e-01 +5.3499640823201780e-03
-1.3000000000000000e+00 +8.1649521815555346e+00 +0.0000000000000000e+00 -1.2999999988273823e+00 -2.7914146478247696e-02 -5.3658658313208452e-01 +5.3499447782692586e-03
-1.4000000000000001e+00 +8.1649445419166042e+00 +0.0000000000000000e+00 -1.3999999985354283e+00 -2.7914156739967659e-02 -5.3658678104776514e-01 +5.3499258188073563e-03
-1.5000000000000002e+00 +8.1649363363771208e+00 +0.0000000000000000e+00 -1.4999999981986405e+00 -2.7914168408677172e-02 -5.3658698275220917e-01 +5.3499070717290325e-03
-1.6000000000000003e+00 +8.1649275649368693e+00 +0.0000000000000000e+00 -1.5999999978138162e+00 -2.7914180691400038e-02 -5.3658718811056716e-01 +5.3498884048303113e-03
-1.7000000000000004e+00 +8.1649182275956349e+00 +0.0000000000000000e+00 -1.6999999973777531e+00 -2.7914192795156161e-02 -5.3658739698798119e-01 +5.3498696859088255e-03
-1.8000000000000005e+00 +8.1649083243531990e+00 +0.0000000000000000e+00 -1.7999999968872487e+00 -2.7914203926960642e-02 -5.3658760924958815e-01 +5.3498507827639723e-03
-1.9000000000000006e+00 +8.1648978552093361e+00 +0.0000000000000000e+00 -1.8999999963391003e+00 -2.7914213293822949e-02 -5.3658782476051614e-01 +5.3498315631970751e-03
-2.0000000000000004e+00 +8.1648868201638205e+00 +0.0000000000000000e+00 -1.9999999957301058e+00 -2.7914220102745996e-02 -5.3658804338588606e-01 +5.3498118950115288e-03
-2.1000000000000005e+00 +8.1648752192164213e+00 +0.0000000000000000e+00 -2.0999999950570625e+00 -2.7914223686240625e-02 -5.3658826506621193e-01 +5.3497916963582129e-03
-2.2000000000000006e+00 +8.1648630523669041e+00 +0.0000000000000000e+00 -2.1999999943167681e+00 -2.7914223878869760e-02 -5.3658849004361142e-01 +5.3497710867709538e-03
-2.3000000000000007e+00 +8.1648503196150326e+00 +0.0000000000000000e+00 -2.2999999935060198e+00 -2.7914220640698782e-02 -5.3658871863560487e-01 +5.3497502361300213e-03
-2.4000000000000008e+00 +8.1648370209605670e+00 +0.0000000000000000e+00 -2.3999999926216153e+00 -2.7914213931778387e-02 -5.3658895115971339e-01 +5.3497293143167359e-03
-2.5000000000000009e+00 +8.1648231564032621e+00 +0.0000000000000000e+00 -2.4999999916603524e+00 -2.7914203712143343e-02 -5.3658918793346255e-01 +5.3497084912134708e-03
-2.6000000000000010e+00 +8.1648087259428692e+00 +0.0000000000000000e+00 -2.5999999906190281e+00 -2.7914189941811055e-02 -5.3658942927438058e-01 +5.3496879367036353e-03
-2.7000000000000011e+00 +8.1647937295791326e+00 +0.0000000000000000e+00 -2.6999999894944402e+00 -2.7914172580780307e-02 -5.3658967550000047e-01 +5.3496678206716762e-03
-2.8000000000000012e+00 +8.1647781673117947e+00 +0.0000000000000000e+00 -2.7999999882833859e+00 -2.7914151589029827e-02 -5.3658992692786001e-01 +5.3496483130030482e-03
-2.9000000000000012e+00 +8.1647620391405891e+00 +0.0000000000000000e+00 -2.8999999869826629e+00 -2.7914126926516996e-02 -5.3659018387550350e-01 +5.3496295835842242e-03
-3.0000000000000013e+00 +8.1647453450652474e+00 +0.0000000000000000e+00 -2.9999999855890689e+00 -2.7914098553176520e-02 -5.3659044666048150e-01 +5.3496118023026772e-03
-3.1000000000000014e+00 +8.1647280850854909e+00 +0.0000000000000000e+00 -3.0999999840994010e+00 -2.7914066428919068e-02 -5.3659071560035254e-01 +5.3495951390468820e-03
-3.2000000000000015e+00 +8.1647102592010370e+00 +0.0000000000000000e+00 -3.1999999825104566e+00 -2.7914030513629930e-02 -5.3659099101268315e-01 +5.3495797637062893e-03
-3.3000000000000016e+00 +8.1646918674115962e+00 +0.0000000000000000e+00 -3.2999999808190337e+00 -2.7913990767167642e-02 -5.3659127321504918e-01 +5.3495658461713306e-03
-3.4000000000000017e+00 +8.1646729097168720e+00 +0.0000000000000000e+00 -3.3999999790219291e+00 -2.7913947149362683e-02 -5.3659156252503659e-01 +5.3495535563333968e-03
-3.5000000000000018e+00 +8.1646533861165587e+00 +0.0000000000000000e+00 -3.4999999771159409e+00 -2.7913899620016155e-02 -5.3659185926024167e-01 +5.3495430640848477e-03
-3.6000000000000019e+00 +8.1646332966103454e+00 +0.0000000000000000e+00 -3.5999999750978660e+00 -2.7913848138898370e-02 -5.3659216373827234e-01 +5.3495345393189822e-03
-3.7000000000000020e+00 +8.1646126411979107e+00 +0.0000000000000000e+00 -3.6999999729645023e+00 -2.7913792665747558e-02 -5.3659247627674933e-01 +5.3495281519300494e-03
-3.8000000000000020e+00 +8.1645914198789260e+00 +0.0000000000000000e+00 -3.7999999707126468e+00 -2.7913733160268482e-02 -5.3659279719330555e-01 +5.3495240718132112e-03
-3.9000000000000021e+00 +8.1645696326530519e+00 +0.0000000000000000e+00 -3.8999999683390971e+00 -2.7913669582131154e-02 -5.3659312680558846e-01 +5.3495224688645728e-03
-4.0000000000000018e+00 +8.1645472795199439e+00 +0.0000000000000000e+00 -3.9999999658406509e+00 -2.7913601890969437e-02 -5.3659346543126019e-01 +5.3495235129811395e-03
-4.1000000000000014e+00 +8.1645243604792448e+00 +0.0000000000000000e+00 -4.0999999632141053e+00 -2.7913530110379784e-02 -5.3659381335026179e-01 +5.3495273352979714e-03
-4.2000000000000011e+00 +8.1645008755305870e+00 +0.0000000000000000e+00 -4.1999999604562577e+00 -2.7913454519943138e-02 -5.3659417069160664e-01 +5.3495339118983954e-03
-4.3000000000000007e+00 +8.1644768246735957e+00 +0.0000000000000000e+00 -4.2999999575639052e+00 -2.7913375463264983e-02 -5.3659453754658626e-01 +5.3495431801007026e-03
-4.4000000000000004e+00 +8.1644522079078836e+00 +0.0000000000000000e+00 -4.3999999545338460e+00 -2.7913293283983495e-02 -5.3659491400650794e-01 +5.3495550772206073e-03
-4.5000000000000000e+00 +8.1644270252330564e+00 +0.0000000000000000e+00 -4.4999999513628772e+00 -2.7913208325772220e-02 -5.3659530016269441e-01 +5.3495695405710638e-03
-4.5999999999999996e+00 +8.1644012766487055e+00 +0.0000000000000000e+00 -4.5999999480477953e+00 -2.7913120932342897e-02 -5.3659569610648572e-01 +5.3495865074620515e-03
-4.6999999999999993e+00 +8.1643749621544153e+00 +0.0000000000000000e+00 -4.6999999445853984e+00 -2.7913031447448243e-02 -5.3659610192923834e-01 +5.3496059152003854e-03
-4.7999999999999989e+00 +8.1643480817497593e+00 +0.0000000000000000e+00 -4.7999999409724845e+00 -2.7912940214884715e-02 -5.3659651772232764e-01 +5.3496277010895103e-03
-4.8999999999999986e+00 +8.1643206354342990e+00 +0.0000000000000000e+00 -4.8999999372058500e+00 -2.7912847578495291e-02 -5.3659694357714605e-01 +5.3496518024292962e-03
-4.9999999999999982e+00 +8.1642926232075865e+00 +0.0000000000000000e+00 -4.9999999332822922e+00 -2.7912753882172223e-02 -5.3659737958510667e-01 +5.3496781565158490e-03
-5.0999999999999979e+00 +8.1642640450691619e+00 +0.0000000000000000e+00 -5.0999999291986091e+00 -2.7912659469859876e-02 -5.3659782583764148e-01 +5.3497067006412985e-03
-5.1999999999999975e+00 +8.1642349010185562e+00 +0.0000000000000000e+00 -5.1999999249515971e+00 -2.7912564685557431e-02 -5.3659828242620311e-01 +5.3497373720936062e-03
-5.2999999999999972e+00 +8.1642051910552897e+00 +0.0000000000000000e+00 -5.2999999205380544e+00 -2.7912469873321688e-02 -5.3659874944226604e-01 +5.3497701081563591e-03
-5.3999999999999968e+00 +8.1641749151788687e+00 +0.0000000000000000e+00 -5.3999999159547771e+00 -2.7912375377269878e-02 -5.3659922697732487e-01 +5.3498048461085700e-03
-5.4999999999999964e+00 +8.1641440733887922e+00 +0.0000000000000000e+00 -5.4999999111985636e+00 -2.7912281541582377e-02 -5.3659971512289828e-01 +5.3498415232244786e-03
-5.5999999999999961e+00 +8.1641126656845451e+00 +0.0000000000000000e+00 -5.5999999062662109e+00 -2.7912188710505523e-02 -5.3660021397052693e-01 +5.3498800767733555e-03
-5.6999999999999957e+00 +8.1640806920656033e+00 +0.0000000000000000e+00 -5.6999999011545155e+00 -2.7912097228354419e-02 -5.3660072361177547e-01 +5.3499204440192868e-03
-5.7999999999999954e+00 +8.1640481525314303e+00 +0.0000000000000000e+00 -5.7999998958602754e+00 -2.7912007439515624e-02 -5.3660124413823307e-01 +5.3499625622209874e-03
-5.8999999999999950e+00 +8.1640150470814792e+00 +0.0000000000000000e+00 -5.8999998903802879e+00 -2.7911919688450026e-02 -5.3660177564151379e-01 +5.3500063686316001e-03
-5.9999999999999947e+00 +8.1639813757151884e+00 +0.0000000000000000e+00 -5.9999998847113494e+00 -2.7911834319695544e-02 -5.3660231821325666e-01 +5.3500518004984824e-03
-6.0999999999999943e+00 +8.1639471384319879e+00 +0.0000000000000000e+00 -6.0999998788502579e+00 -2.7911751588927183e-02 -5.3660287173777843e-01 +5.3500987657738395e-03
-6.1999999999999940e+00 +8.1639123352312950e+00 +0.0000000000000000e+00 -6.1999998727938106e+00 -2.7911671396092082e-02 -5.3660343526999232e-01 +5.3501470552487279e-03
-6.2999999999999936e+00 +8.1638769661125163e+00 +0.0000000000000000e+00 -6.2999998665388039e+00 -2.7911593552172081e-02 -5.3660400765740823e-01 +5.3501964304244623e-03
-6.3999999999999932e+00 +8.1638410310750498e+00 +0.0000000000000000e+00 -6.3999998600820360e+00 -2.7911517868115961e-02 -5.3660458774747311e-01 +5.3502466528026118e-03
-6.4999999999999929e+00 +8.1638045301182842e+00 +0.0000000000000000e+00 -6.4999998534203032e+00 -2.7911444154837470e-02 -5.3660517438756838e-01 +5.3502974838850288e-03
-6.5999999999999925e+00 +8.1637674632416033e+00 +0.0000000000000000e+00 -6.5999998465504026e+00 -2.7911372223213486e-02 -5.3660576642500712e-01 +5.3503486851739423e-03
-6.6999999999999922e+00 +8.1637298304443835e+00 +0.0000000000000000e+00 -6.6999998394691316e+00 -2.7911301884082175e-02 -5.3660636270703155e-01 +5.3504000181720029e-03
-6.7999999999999918e+00 +8.1636916317259960e+00 +0.0000000000000000e+00 -6.7999998321732873e+00 -2.7911232948240980e-02 -5.3660696208080938e-01 +5.3504512443823425e-03
-6.8999999999999915e+00 +8.1636528670858119e+00 +0.0000000000000000e+00 -6.8999998246596670e+00 -2.7911165226444903e-02 -5.3660756339343130e-01 +5.3505021253086541e-03
-6.9999999999999911e+00 +8.1636135365231972e+00 +0.0000000000000000e+00 -6.9999998169250670e+00 -2.7911098529404463e-02 -5.3660816549190826e-01 +5.3505524224552407e-03
-7.0999999999999908e+00 +8.1635736400375194e+00 +0.0000000000000000e+00 -7.0999998089662855e+00 -2.7911032667783921e-02 -5.3660876722316930e-01 +5.3506018973270798e-03
-7.1999999999999904e+00 +8.1635331776281443e+00 +0.0000000000000000e+00 -7.1999998007801187e+00 -2.7910967452199339e-02 -5.3660936743405663e-01 +5.3506503114298925e-03
-7.2999999999999901e+00 +8.1634921492944397e+00 +0.0000000000000000e+00 -7.2999997923633639e+00 -2.7910902693216749e-02 -5.3660996497132540e-01 +5.3506974262702020e-03
-7.3999999999999897e+00 +8.1634505550357783e+00 +0.0000000000000000e+00 -7.3999997837128184e+00 -2.7910838201350228e-02 -5.3661055868163920e-01 +5.3507430033553982e-03
-7.4999999999999893e+00 +8.1634083948515350e+00 +0.0000000000000000e+00 -7.4999997748252785e+00 -2.7910773787060007e-02 -5.3661114741156679e-01 +5.3507868041937981e-03
-7.5999999999999890e+00 +8.1633656687410898e+00 +0.0000000000000000e+00 -7.5999997656975422e+00 -2.7910709260750642e-02 -5.3661173000758167e-01 +5.3508285902947187e-03
-7.6999999999999886e+00 +8.1633223767038299e+00 +0.0000000000000000e+00 -7.6999997563264060e+00 -2.7910644432769090e-02 -5.3661230531605608e-01 +5.3508681231685291e-03
-7.7999999999999883e+00 +8.1632785187391494e+00 +0.0000000000000000e+00 -7.7999997467086670e+00 -2.7910579113402827e-02 -5.3661287218326037e-01 +5.3509051643267202e-03
-7.8999999999999879e+00 +8.1632340948464535e+00 +0.0000000000000000e+00 -7.8999997368411217e+00 -2.7910513112877986e-02 -5.3661342945535928e-01 +5.3509394752819638e-03
-7.9999999999999876e+00 +8.1631891050251557e+00 +0.0000000000000000e+00 -7.9999997267205680e+00 -2.7910446241357512e-02 -5.3661397597840943e-01 +5.3509708175481889e-03
-8.0999999999999872e+00 +8.1631435492746807e+00 +0.0000000000000000e+00 -8.0999997163438024e+00 -2.7910378377321216e-02 -5.3661451084959821e-01 +5.3509990490072847e-03
-8.1999999999999869e+00 +8.1630974275944652e+00 +0.0000000000000000e+00 -8.1999997057076222e+00 -2.7910309672739841e-02 -5.3661503417103218e-01 +5.3510244130132809e-03
-8.2999999999999865e+00 +8.1630507399839587e+00 +0.0000000000000000e+00 -8.2999996948088235e+00 -2.7910240347975117e-02 -5.3661554629610497e-01 +5.3510472492926146e-03
-8.3999999999999861e+00 +8.1630034864426246e+00 +0.0000000000000000e+00 -8.3999996836442037e+00 -2.7910170623404024e-02 -5.3661604757826764e-01 +5.3510678975762999e-03
-8.4999999999999858e+00 +8.1629556669699337e+00 +0.0000000000000000e+00 -8.4999996722105600e+00 -2.7910100719419441e-02 -5.3661653837103096e-01 +5.3510866976000547e-03
-8.5999999999999854e+00 +8.1629072815653707e+00 +0.0000000000000000e+00 -8.5999996605046896e+00 -2.7910030856430745e-02 -5.3661701902796877e-01 +5.3511039891044740e-03
-8.6999999999999851e+00 +8.1628583302284294e+00 +0.0000000000000000e+00 -8.6999996485233879e+00 -2.7909961254864502e-02 -5.3661748990271885e-01 +5.3511201118351679e-03
-8.7999999999999847e+00 +8.1628088129586160e+00 +0.0000000000000000e+00 -8.7999996362634541e+00 -2.7909892135165083e-02 -5.3661795134898582e-01 +5.3511354055429143e-03
-8.8999999999999844e+00 +8.1627587297554456e+00 +0.0000000000000000e+00 -8.8999996237216834e+00 -2.7909823717795254e-02 -5.3661840372054392e-01 +5.3511502099838106e-03
-8.9999999999999840e+00 +8.1627080806184420e+00 +0.0000000000000000e+00 -8.9999996108948732e+00 -2.7909756223236850e-02 -5.3661884737123899e-01 +5.3511648649194107e-03
-9.0999999999999837e+00 +8.1626568655471381e+00 +0.0000000000000000e+00 -9.0999995977798207e+00 -2.7909689871991487e-02 -5.3661928265499093e-01 +5.3511797101168978e-03
-9.1999999999999833e+00 +8.1626050845410774e+00 +0.0000000000000000e+00 -9.1999995843733231e+00 -2.7909624884581031e-02 -5.3661970992579644e-01 +5.3511950853492177e-03
-9.2999999999999829e+00 +8.1625527375998104e+00 +0.0000000000000000e+00 -9.2999995706721776e+00 -2.7909561481548373e-02 -5.3662012953773008e-01 +5.3512113303952231e-03
-9.3999999999999826e+00 +8.1624998247228966e+00 +0.0000000000000000e+00 -9.3999995566731798e+00 -2.7909499883458009e-02 -5.3662054184494867e-01 +5.3512287850398330e-03
-9.4999999999999822e+00 +8.1624463459099026e+00 +0.0000000000000000e+00 -9.4999995423731285e+00 -2.7909440310896677e-02 -5.3662094720169173e-01 +5.3512477890741783e-03
-9.5999999999999819e+00 +8.1623923011604020e+00 +0.0000000000000000e+00 -9.5999995277688193e+00 -2.7909382984473968e-02 -5.3662134596228483e-01 +5.3512686822957487e-03
-9.6999999999999815e+00 +8.1623376904739775e+00 +0.0000000000000000e+00 -9.6999995128570493e+00 -2.7909328124823010e-02 -5.3662173848114192e-01 +5.3512918045085425e-03
-9.7999999999999812e+00 +8.1622825138502151e+00 +0.0000000000000000e+00 -9.7999994976346159e+00 -2.7909275952601054e-02 -5.3662212511276752e-01 +5.3513174955232079e-03
-9.8999999999999808e+00 +8.1622267712887098e+00 +0.0000000000000000e+00 -9.8999994820983162e+00 -2.7909226688490111e-02 -5.3662250621175900e-01 +5.3513460951571988e-03
-9.9999999999999805e+00 +8.1621704627890619e+00 +0.0000000000000000e+00 -9.9999994662449456e+00 -2.7909180553197618e-02 -5.3662288213280906e-01 +5.3513779432349182e-03
-1.0099999999999980e+01 +8.1621135883508753e+00 +0.0000000000000000e+00 -1.0099999450071302e+01 -2.7909137712561406e-02 -5.3662325342961492e-01 +5.3514132827404311e-03
-1.0199999999999980e+01 +8.1620561479737610e+00 +0.0000000000000000e+00 -1.0199999433574183e+01 -2.7909098112851298e-02 -5.3662362145158327e-01 +5.3514519692654467e-03
-1.0299999999999979e+01 +8.1619981416573335e+00 +0.0000000000000000e+00 -1.0299999416750385e+01 -2.7909061645442716e-02 -5.3662398774705744e-01 +5.3514937615484230e-03
-1.0399999999999979e+01 +8.1619395694012074e+00 +0.0000000000000000e+00 -1.0399999399596703e+01 -2.7909028201711948e-02 -5.3662435386439722e-01 +5.3515384183240866e-03
-1.0499999999999979e+01 +8.1618804312049971e+00 +0.0000000000000000e+00 -1.0499999382109937e+01 -2.7908997673036076e-02 -5.3662472135197803e-01 +5.3515856983233226e-03
-1.0599999999999978e+01 +8.1618207270683190e+00 +0.0000000000000000e+00 -1.0599999364286882e+01 -2.7908969950793023e-02 -5.3662509175819229e-01 +5.3516353602730566e-03
-1.0699999999999978e+01 +8.1617604569907822e+00 +0.0000000000000000e+00 -1.0699999346124336e+01 -2.7908944926361524e-02 -5.3662546663144961e-01 +5.3516871628961462e-03
-1.0799999999999978e+01 +8.1616996209719943e+00 +0.0000000000000000e+00 -1.0799999327619096e+01 -2.7908922491121164e-02 -5.3662584752017617e-01 +5.3517408649112631e-03
-1.0899999999999977e+01 +8.1616382190115555e+00 +0.0000000000000000e+00 -1.0899999308767956e+01 -2.7908902536452267e-02 -5.3662623597281656e-01 +5.3517962250327752e-03
-1.0999999999999977e+01 +8.1615762511090573e+00 +0.0000000000000000e+00 -1.0999999289567716e+01 -2.7908884953736043e-02 -5.3662663353783213e-01 +5.3518530019706443e-03
-1.1099999999999977e+01 +8.1615137172640821e+00 +0.0000000000000000e+00 -1.1099999270015172e+01 -2.7908869634354454e-02 -5.3662704176370235e-01 +5.3519109544303044e-03
-1.1199999999999976e+01 +8.1614506174762020e+00 +0.0000000000000000e+00 -1.1199999250107119e+01 -2.7908856469690293e-02 -5.3662746219892543e-01 +5.3519698411125492e-03
-1.1299999999999976e+01 +8.1613869517449746e+00 +0.0000000000000000e+00 -1.1299999229840356e+01 -2.7908845351127132e-02 -5.3662789639201769e-01 +5.3520294207134271e-03
-1.1399999999999975e+01 +8.1613227200699452e+00 +0.0000000000000000e+00 -1.1399999209211680e+01 -2.7908836170049356e-02 -5.3662834589151398e-01 +5.3520894519241127e-03
-1.1499999999999975e+01 +8.1612579224506412e+00 +0.0000000000000000e+00 -1.1499999188217886e+01 -2.7908828817842114e-02 -5.3662881224596826e-01 +5.3521496934308107e-03
-1.1599999999999975e+01 +8.1611925588865724e+00 +0.0000000000000000e+00 -1.1599999166855774e+01 -2.7908823185891364e-02 -5.3662929700395390e-01 +5.3522099039146342e-03
-1.1699999999999974e+01 +8.1611266293772289e+00 +0.0000000000000000e+00 -1.1699999145122137e+01 -2.7908819165583850e-02 -5.3662980171406360e-01 +5.3522698420514960e-03
