# field on trajectory
# s[mm] rx[mm] ry[mm] rz[mm] bx[T] by[T] bz[T]
0.0000000000000000e+00 +8.1529999999999987e+00 +0.0000000000000000e+00 +0.0000000000000000e+00 -3.2286367078143668e-02 -5.9275092995329359e-01 +5.8935102620051270e-03
1.0000000000000001e-01 +8.1529997168384725e+00 +0.0000000000000000e+00 +9.9999999999465461e-02 -3.2286364616200873e-02 -5.9275076173428010e-01 +5.8934915052007717e-03
2.0000000000000001e-01 +8.1529988673540039e+00 +0.0000000000000000e+00 +1.9999999999572371e-01 -3.2286369698390709e-02 -5.9275059412269449e-01 +5.8934732472306177e-03
3.0000000000000004e-01 +8.1529974515467512e+00 +0.0000000000000000e+00 +2.9999999998556753e-01 -3.2286382266661591e-02 -5.9275042788727283e-01 +5.8934554743289994e-03
4.0000000000000002e-01 +8.1529954694168723e+00 +0.0000000000000000e+00 +3.9999999996578972e-01 -3.2286402262950008e-02 -5.9275026379672613e-01 +5.8934381727295225e-03
5.0000000000000000e-01 +8.1529929209645253e+00 +0.0000000000000000e+00 +4.9999999993318306e-01 -3.2286429629183239e-02 -5.9275010261974270e-01 +5.8934213286652090e-03
5.9999999999999998e-01 +8.1529898061898649e+00 +0.0000000000000000e+00 +5.9999999988454034e-01 -3.2286464307281916e-02 -5.9274994512499346e-01 +5.8934049283686290e-03
6.9999999999999996e-01 +8.1529861250930402e+00 +0.0000000000000000e+00 +6.9999999981665428e-01 -3.2286506239162863e-02 -5.9274979208113687e-01 +5.8933889580720664e-03
7.9999999999999993e-01 +8.1529818776741987e+00 +0.0000000000000000e+00 +7.9999999972631786e-01 -3.2286555366741680e-02 -5.9274964425682219e-01 +5.8933734040076359e-03
8.9999999999999991e-01 +8.1529770639334807e+00 +0.0000000000000000e+00 +8.9999999961032373e-01 -3.2286611631935504e-02 -5.9274950242069424e-01 +5.8933582524074522e-03
9.9999999999999989e-01 +8.1529716838710229e+00 +0.0000000000000000e+00 +9.9999999946546470e-01 -3.2286674976665590e-02 -5.9274936734139871e-01 +5.8933434895037549e-03
1.0999999999999999e+00 +8.1529657374869533e+00 +0.0000000000000000e+00 +1.0999999992885336e+00 -3.2286745342860093e-02 -5.9274923978758554e-01 +5.8933291015290717e-03
1.2000000000000000e+00 +8.1529592247813945e+00 +0.0000000000000000e+00 +1.1999999990763233e+00 -3.2286822672456771e-02 -5.9274912052791340e-01 +5.8933150747163422e-03
1.3000000000000000e+00 +8.1529521457544600e+00 +0.0000000000000000e+00 +1.2999999988256266e+00 -3.2286906907405537e-02 -5.9274901033105476e-01 +5.8933013952990766e-03
1.4000000000000001e+00 +8.1529445004062566e+00 +0.0000000000000000e+00 +1.3999999985332361e+00 -3.2286997989671287e-02 -5.9274890996569896e-01 +5.8932880495114939e-03
1.5000000000000002e+00 +8.1529362887368784e+00 +0.0000000000000000e+00 +1.4999999981959449e+00 -3.2287095861236521e-02 -5.9274882020055841e-01 +5.8932750235886622e-03
1.6000000000000003e+00 +8.1529275107464123e+00 +0.0000000000000000e+00 +1.5999999978105457e+00 -3.2287200464104070e-02 -5.9274874180437154e-01 +5.8932623037666592e-03
1.7000000000000004e+00 +8.1529181664349348e+00 +0.0000000000000000e+00 +1.6999999973738313e+00 -3.2287311740299710e-02 -5.9274867554590782e-01 +5.8932498762826928e-03
1.8000000000000005e+00 +8.1529082558025081e+00 +0.0000000000000000e+00 +1.7999999968825946e+00 -3.2287429631874913e-02 -5.9274862219397273e-01 +5.8932377273752693e-03
1.9000000000000006e+00 +8.1528977788491837e+00 +0.0000000000000000e+00 +1.8999999963336283e+00 -3.2287554080909504e-02 -5.9274858251740981e-01 +5.8932258432843124e-03
2.0000000000000004e+00 +8.1528867355749988e+00 +0.0000000000000000e+00 +1.9999999957237251e+00 -3.2287685029514381e-02 -5.9274855728510878e-01 +5.8932142102513354e-03
2.1000000000000005e+00 +8.1528751259799783e+00 +0.0000000000000000e+00 +2.0999999950496782e+00 -3.2287822308778101e-02 -5.9274854707167635e-01 +5.8932028302075955e-03
2.2000000000000006e+00 +8.1528629500641330e+00 +0.0000000000000000e+00 +2.1999999943082797e+00 -3.2287965305590867e-02 -5.9274855167443841e-01 +5.8931917678374879e-03
2.3000000000000007e+00 +8.1528502078274592e+00 +0.0000000000000000e+00 +2.2999999934963231e+00 -3.2288113295795104e-02 -5.9274857069639886e-01 +5.8931811035127513e-03
2.4000000000000008e+00 +8.1528368992699392e+00 +0.0000000000000000e+00 +2.3999999926106010e+00 -3.2288265555238060e-02 -5.9274860374056471e-01 +5.8931709176040558e-03
2.5000000000000009e+00 +8.1528230243915409e+00 +0.0000000000000000e+00 +2.4999999916479063e+00 -3.2288421359770773e-02 -5.9274865040994462e-01 +5.8931612904808070e-03
2.6000000000000010e+00 +8.1528085831922201e+00 +0.0000000000000000e+00 +2.5999999906050313e+00 -3.2288579985247104e-02 -5.9274871030754672e-01 +5.8931523025109777e-03
2.7000000000000011e+00 +8.1527935756719199e+00 +0.0000000000000000e+00 +2.6999999894787692e+00 -3.2288740707522717e-02 -5.9274878303637846e-01 +5.8931440340609228e-03
2.8000000000000012e+00 +8.1527780018305727e+00 +0.0000000000000000e+00 +2.7999999882659128e+00 -3.2288902802454007e-02 -5.9274886819944339e-01 +5.8931365654951978e-03
2.9000000000000012e+00 +8.1527618616680968e+00 +0.0000000000000000e+00 +2.8999999869632549e+00 -3.2289065545897187e-02 -5.9274896539974053e-01 +5.8931299771763871e-03
3.0000000000000013e+00 +8.1527451551843999e+00 +0.0000000000000000e+00 +2.9999999855675883e+00 -3.2289228213707201e-02 -5.9274907424026402e-01 +5.8931243494649219e-03
3.1000000000000014e+00 +8.1527278823793790e+00 +0.0000000000000000e+00 +3.0999999840757058e+00 -3.2289390081736750e-02 -5.9274919432399897e-01 +5.8931197627188955e-03
3.2000000000000015e+00 +8.1527100432529203e+00 +0.0000000000000000e+00 +3.1999999824844001e+00 -3.2289550425835270e-02 -5.9274932525392221e-01 +5.8931162972938947e-03
3.3000000000000016e+00 +8.1526916378048977e+00 +0.0000000000000000e+00 +3.2999999807904641e+00 -3.2289708521847954e-02 -5.9274946663300099e-01 +5.8931140335428149e-03
3.4000000000000017e+00 +8.1526726660351780e+00 +0.0000000000000000e+00 +3.3999999789906901e+00 -3.2289863645614689e-02 -5.9274961806418935e-01 +5.8931130518156804e-03
3.5000000000000018e+00 +8.1526531279436174e+00 +0.0000000000000000e+00 +3.4999999770818713e+00 -3.2290015072969074e-02 -5.9274977915042826e-01 +5.8931134324594590e-03
3.6000000000000019e+00 +8.1526330235300613e+00 +0.0000000000000000e+00 +3.5999999750608005e+00 -3.2290162079737436e-02 -5.9274994949464421e-01 +5.8931152558179016e-03
3.7000000000000020e+00 +8.1526123527943479e+00 +0.0000000000000000e+00 +3.6999999729242701e+00 -3.2290303941737764e-02 -5.9275012869974664e-01 +5.8931186022313457e-03
3.8000000000000020e+00 +8.1525911157363087e+00 +0.0000000000000000e+00 +3.7999999706690732e+00 -3.2290439934778800e-02 -5.9275031636862741e-01 +5.8931235520365373e-03
3.9000000000000021e+00 +8.1525693123557623e+00 +0.0000000000000000e+00 +3.8999999682920024e+00 -3.2290569334658868e-02 -5.9275051210415930e-01 +5.8931301855664657e-03
4.0000000000000018e+00 +8.1525469426525241e+00 +0.0000000000000000e+00 +3.9999999657898506e+00 -3.2290691417165042e-02 -5.9275071550919378e-01 +5.8931385831501627e-03
4.1000000000000014e+00 +8.1525240066264004e+00 +0.0000000000000000e+00 +4.0999999631594104e+00 -3.2290805700837123e-02 -5.9275092613728242e-01 +5.8931488063948666e-03
4.2000000000000011e+00 +8.1525005042771905e+00 +0.0000000000000000e+00 +4.1999999603974745e+00 -3.2290912675260609e-02 -5.9275114334484424e-01 +5.8931608420354584e-03
4.3000000000000007e+00 +8.1524764356046884e+00 +0.0000000000000000e+00 +4.2999999575008356e+00 -3.2291013072766203e-02 -5.9275136643900439e-01 +5.8931746580924947e-03
4.4000000000000004e+00 +8.1524518006086808e+00 +0.0000000000000000e+00 +4.3999999544662867e+00 -3.2291107625662244e-02 -5.9275159472686978e-01 +5.8931902225908819e-03
4.5000000000000000e+00 +8.1524265992889511e+00 +0.0000000000000000e+00 +4.4999999512906204e+00 -3.2291197066233339e-02 -5.9275182751553079e-01 +5.8932075035602362e-03
4.5999999999999996e+00 +8.1524008316452772e+00 +0.0000000000000000e+00 +4.5999999479706295e+00 -3.2291282126738950e-02 -5.9275206411205839e-01 +5.8932264690351819e-03
4.6999999999999993e+00 +8.1523744976774335e+00 +0.0000000000000000e+00 +4.6999999445031069e+00 -3.2291363539412025e-02 -5.9275230382350375e-01 +5.8932470870556777e-03
4.7999999999999989e+00 +8.1523475973851927e+00 +0.0000000000000000e+00 +4.7999999408848444e+00 -3.2291442036457549e-02 -5.9275254595689775e-01 +5.8932693256673503e-03
4.8999999999999986e+00 +8.1523201307683237e+00 +0.0000000000000000e+00 +4.8999999371126357e+00 -3.2291518350051202e-02 -5.9275278981924928e-01 +5.8932931529218002e-03
4.9999999999999982e+00 +8.1522920978265958e+00 +0.0000000000000000e+00 +4.9999999331832727e+00 -3.2291593212337925e-02 -5.9275303471754481e-01 +5.8933185368769386e-03
5.0999999999999979e+00 +8.1522634985597744e+00 +0.0000000000000000e+00 +5.0999999290935492e+00 -3.2291667355430508e-02 -5.9275327995874760e-01 +5.8933454455973042e-03
5.1999999999999975e+00 +8.1522343329676268e+00 +0.0000000000000000e+00 +5.1999999248402569e+00 -3.2291741511408192e-02 -5.9275352484979638e-01 +5.8933738471543852e-03
5.2999999999999972e+00 +8.1522046010499203e+00 +0.0000000000000000e+00 +5.2999999204201886e+00 -3.2291816412315273e-02 -5.9275376869760377e-01 +5.8934037096269321e-03
5.3999999999999968e+00 +8.1521743028064222e+00 +0.0000000000000000e+00 +5.3999999158301373e+00 -3.2291892790159725e-02 -5.9275401080905732e-01 +5.8934350011013029e-03
5.4999999999999964e+00 +8.1521434382369034e+00 +0.0000000000000000e+00 +5.4999999110668956e+00 -3.2291971376911754e-02 -5.9275425049101638e-01 +5.8934676896717671e-03
5.5999999999999961e+00 +8.1521120073411346e+00 +0.0000000000000000e+00 +5.5999999061272554e+00 -3.2292052904502412e-02 -5.9275448705031275e-01 +5.8935017434408295e-03
5.6999999999999957e+00 +8.1520800101188922e+00 +0.0000000000000000e+00 +5.6999999010080105e+00 -3.2292138104822191e-02 -5.9275471979374883e-01 +5.8935371305195595e-03
5.7999999999999954e+00 +8.1520474465699539e+00 +0.0000000000000000e+00 +5.7999998957059535e+00 -3.2292227709719623e-02 -5.9275494802809670e-01 +5.8935738190279098e-03
5.8999999999999950e+00 +8.1520143166941033e+00 +0.0000000000000000e+00 +5.8999998902178765e+00 -3.2292322450999840e-02 -5.9275517106009834e-01 +5.8936117770950324e-03
5.9999999999999947e+00 +8.1519806204911269e+00 +0.0000000000000000e+00 +5.9999998845405722e+00 -3.2292423060423202e-02 -5.9275538819646212e-01 +5.8936509728596126e-03
6.0999999999999943e+00 +8.1519463579608207e+00 +0.0000000000000000e+00 +6.0999998786708334e+00 -3.2292529977844708e-02 -5.9275559899351216e-01 +5.8936913845218618e-03
6.1999999999999940e+00 +8.1519115291029838e+00 +0.0000000000000000e+00 +6.1999998726054528e+00 -3.2292642475656615e-02 -5.9275580400614614e-01 +5.8937330304939424e-03
6.2999999999999936e+00 +8.1518761339174208e+00 +0.0000000000000000e+00 +6.2999998663412233e+00 -3.2292759534413379e-02 -5.9275600403892326e-01 +5.8937759392360062e-03
6.3999999999999932e+00 +8.1518401724039418e+00 +0.0000000000000000e+00 +6.3999998598749368e+00 -3.2292880134700913e-02 -5.9275619989642458e-01 +5.8938201392029358e-03
6.4999999999999929e+00 +8.1518036445623601e+00 +0.0000000000000000e+00 +6.4999998532033869e+00 -3.2293003257138450e-02 -5.9275639238325051e-01 +5.8938656588440322e-03
6.5999999999999925e+00 +8.1517665503924928e+00 +0.0000000000000000e+00 +6.5999998463233656e+00 -3.2293127882380090e-02 -5.9275658230402473e-01 +5.8939125266027209e-03
6.6999999999999922e+00 +8.1517288898941604e+00 +0.0000000000000000e+00 +6.6999998392316664e+00 -3.2293252991116787e-02 -5.9275677046339426e-01 +5.8939607709162607e-03
6.7999999999999918e+00 +8.1516906630671855e+00 +0.0000000000000000e+00 +6.7999998319250814e+00 -3.2293377564077984e-02 -5.9275695766603009e-01 +5.8940104202154456e-03
6.8999999999999915e+00 +8.1516518699113885e+00 +0.0000000000000000e+00 +6.8999998244004033e+00 -3.2293500582033355e-02 -5.9275714471662988e-01 +5.8940615029242967e-03
6.9999999999999911e+00 +8.1516125104265917e+00 +0.0000000000000000e+00 +6.9999998166544239e+00 -3.2293621025794639e-02 -5.9275733241991801e-01 +5.8941140474597911e-03
7.0999999999999908e+00 +8.1515725846126177e+00 +0.0000000000000000e+00 +7.0999998086839371e+00 -3.2293737876217365e-02 -5.9275752158064710e-01 +5.8941680822315384e-03
7.1999999999999904e+00 +8.1515320924692869e+00 +0.0000000000000000e+00 +7.1999998004857346e+00 -3.2293850114202625e-02 -5.9275771300359903e-01 +5.8942236356415044e-03
7.2999999999999901e+00 +8.1514910339964182e+00 +0.0000000000000000e+00 +7.2999997920566093e+00 -3.2293956720698805e-02 -5.9275790749358703e-01 +5.8942807360837070e-03
7.3999999999999897e+00 +8.1514494091938268e+00 +0.0000000000000000e+00 +7.3999997833933540e+00 -3.2294056676703375e-02 -5.9275810585545519e-01 +5.8943394119439149e-03
7.4999999999999893e+00 +8.1514072180613244e+00 +0.0000000000000000e+00 +7.4999997744927613e+00 -3.2294148963264692e-02 -5.9275830889408176e-01 +5.8943996915993644e-03
7.5999999999999890e+00 +8.1513644605987174e+00 +0.0000000000000000e+00 +7.5999997653516242e+00 -3.2294232561483720e-02 -5.9275851741437857e-01 +5.8944616034184551e-03
7.6999999999999886e+00 +8.1513211368058087e+00 +0.0000000000000000e+00 +7.6999997559667355e+00 -3.2294306452515749e-02 -5.9275873222129327e-01 +5.8945251757604507e-03
7.7999999999999883e+00 +8.1512772466823940e+00 +0.0000000000000000e+00 +7.7999997463348869e+00 -3.2294369617572295e-02 -5.9275895411981017e-01 +5.8945904369751912e-03
7.8999999999999879e+00 +8.1512327902282635e+00 +0.0000000000000000e+00 +7.8999997364528713e+00 -3.2294421037922766e-02 -5.9275918391495086e-01 +5.8946574154027905e-03
7.9999999999999876e+00 +8.1511877674431990e+00 +0.0000000000000000e+00 +7.9999997263174816e+00 -3.2294459694896242e-02 -5.9275942241177704e-01 +5.8947261393733482e-03
8.0999999999999872e+00 +8.1511421783269729e+00 +0.0000000000000000e+00 +8.0999997159255095e+00 -3.2294484947254759e-02 -5.9275967020429088e-01 +5.8947966015996389e-03
8.1999999999999869e+00 +8.1510960228793508e+00 +0.0000000000000000e+00 +8.1999997052737488e+00 -3.2294497663301100e-02 -5.9275992704211777e-01 +5.8948686523579057e-03
8.2999999999999865e+00 +8.1510493011000893e+00 +0.0000000000000000e+00 +8.2999996943589913e+00 -3.2294499088723450e-02 -5.9276019246378497e-01 +5.8949421063150074e-03
8.3999999999999861e+00 +8.1510020129889345e+00 +0.0000000000000000e+00 +8.3999996831780290e+00 -3.2294490469212442e-02 -5.9276046600781929e-01 +5.8950167781368305e-03
8.4999999999999858e+00 +8.1509541585456287e+00 +0.0000000000000000e+00 +8.4999996717276556e+00 -3.2294473050461098e-02 -5.9276074721274885e-01 +5.8950924824882822e-03
8.5999999999999854e+00 +8.1509057377699037e+00 +0.0000000000000000e+00 +8.5999996600046629e+00 -3.2294448078164707e-02 -5.9276103561710181e-01 +5.8951690340333027e-03
8.6999999999999851e+00 +8.1508567506614860e+00 +0.0000000000000000e+00 +8.6999996480058446e+00 -3.2294416798020538e-02 -5.9276133075940629e-01 +5.8952462474348667e-03
8.7999999999999847e+00 +8.1508071972200948e+00 +0.0000000000000000e+00 +8.7999996357279926e+00 -3.2294380455727863e-02 -5.9276163217819100e-01 +5.8953239373549793e-03
8.8999999999999844e+00 +8.1507570774454425e+00 +0.0000000000000000e+00 +8.8999996231678988e+00 -3.2294340296987682e-02 -5.9276193941198474e-01 +5.8954019184546992e-03
8.9999999999999840e+00 +8.1507063913372395e+00 +0.0000000000000000e+00 +8.9999996103223570e+00 -3.2294297567502607e-02 -5.9276225199931554e-01 +5.8954800053941320e-03
9.0999999999999837e+00 +8.1506551388951873e+00 +0.0000000000000000e+00 +9.0999995971881589e+00 -3.2294253512976767e-02 -5.9276256947871242e-01 +5.8955580128324369e-03
9.1999999999999833e+00 +8.1506033201189858e+00 +0.0000000000000000e+00 +9.1999995837620965e+00 -3.2294209379115542e-02 -5.9276289138870342e-01 +5.8956357554278286e-03
9.2999999999999829e+00 +8.1505509350083276e+00 +0.0000000000000000e+00 +9.2999995700409634e+00 -3.2294166411625545e-02 -5.9276321726781744e-01 +5.8957130478375901e-03
9.3999999999999826e+00 +8.1504979835629037e+00 +0.0000000000000000e+00 +9.3999995560215517e+00 -3.2294125856214349e-02 -5.9276354665458209e-01 +5.8957897047180715e-03
9.4999999999999822e+00 +8.1504444657824013e+00 +0.0000000000000000e+00 +9.4999995417006531e+00 -3.2294088958590386e-02 -5.9276387908752459e-01 +5.8958655407246978e-03
9.5999999999999819e+00 +8.1503903816665044e+00 +0.0000000000000000e+00 +9.5999995270750613e+00 -3.2294056964462754e-02 -5.9276421410517244e-01 +5.8959403705119680e-03
9.6999999999999815e+00 +8.1503357312148932e+00 +0.0000000000000000e+00 +9.6999995121415665e+00 -3.2294031119541128e-02 -5.9276455124605198e-01 +5.8960140087334738e-03
9.7999999999999812e+00 +8.1502805144272497e+00 +0.0000000000000000e+00 +9.7999994968969641e+00 -3.2294012669535500e-02 -5.9276489004868904e-01 +5.8960862700418882e-03
9.8999999999999808e+00 +8.1502247313032505e+00 +0.0000000000000000e+00 +9.8999994813380443e+00 -3.2294002860156143e-02 -5.9276523005160953e-01 +5.8961569690889875e-03
9.9999999999999805e+00 +8.1501683818425743e+00 +0.0000000000000000e+00 +9.9999994654616007e+00 -3.2294002937113285e-02 -5.9276557079333758e-01 +5.8962259205256407e-03
1.0099999999999980e+01 +8.1501114660448959e+00 +0.0000000000000000e+00 +1.0099999449264425e+01 -3.2294013832722505e-02 -5.9276591189980365e-01 +5.8962929895782059e-03
1.0199999999999980e+01 +8.1500539839098902e+00 +0.0000000000000000e+00 +1.0199999432743311e+01 -3.2294035225696294e-02 -5.9276625334656152e-01 +5.8963582437819122e-03
1.0299999999999979e+01 +8.1499959354372358e+00 +0.0000000000000000e+00 +1.0299999415895051e+01 -3.2294066481329785e-02 -5.9276659519655139e-01 +5.8964218012518832e-03
1.0399999999999979e+01 +8.1499373206266057e+00 +0.0000000000000000e+00 +1.0399999398716437e+01 -3.2294106964903951e-02 -5.9276693751268494e-01 +5.8964837801054465e-03
1.0499999999999979e+01 +8.1498781394776749e+00 +0.0000000000000000e+00 +1.0499999381204260e+01 -3.2294156041685028e-02 -5.9276728035784654e-01 +5.8965442984622194e-03
1.0599999999999978e+01 +8.1498183919901184e+00 +0.0000000000000000e+00 +1.0599999363355314e+01 -3.2294213076924136e-02 -5.9276762379489190e-01 +5.8966034744441839e-03
1.0699999999999978e+01 +8.1497580781636092e+00 +0.0000000000000000e+00 +1.0699999345166392e+01 -3.2294277435856771e-02 -5.9276796788664721e-01 +5.8966614261757597e-03
1.0799999999999978e+01 +8.1496971979978223e+00 +0.0000000000000000e+00 +1.0799999326634284e+01 -3.2294348483702370e-02 -5.9276831269590891e-01 +5.8967182717838979e-03
1.0899999999999977e+01 +8.1496357514924291e+00 +0.0000000000000000e+00 +1.0899999307755783e+01 -3.2294425585663894e-02 -5.9276865828544267e-01 +5.8967741293981420e-03
1.0999999999999977e+01 +8.1495737386471010e+00 +0.0000000000000000e+00 +1.0999999288527682e+01 -3.2294508106927279e-02 -5.9276900471798299e-01 +5.8968291171507042e-03
1.1099999999999977e+01 +8.1495111594615093e+00 +0.0000000000000000e+00 +1.1099999268946775e+01 -3.2294595412661040e-02 -5.9276935205623194e-01 +5.8968833531765569e-03
1.1199999999999976e+01 +8.1494480139353236e+00 +0.0000000000000000e+00 +1.1199999249009851e+01 -3.2294686868015801e-02 -5.9276970036285870e-01 +5.8969369556135113e-03
1.1299999999999976e+01 +8.1493843020682135e+00 +0.0000000000000000e+00 +1.1299999228713705e+01 -3.2294781838123864e-02 -5.9277004970049962e-01 +5.8969900426022641e-03
1.1399999999999975e+01 +8.1493200238598469e+00 +0.0000000000000000e+00 +1.1399999208055130e+01 -3.2294879688098681e-02 -5.9277040013175575e-01 +5.8970427322865187e-03
1.1499999999999975e+01 +8.1492551793098915e+00 +0.0000000000000000e+00 +1.1499999187030916e+01 -3.2294979783034479e-02 -5.9277075171919424e-01 +5.8970951428130320e-03
1.1599999999999975e+01 +8.1491897684180135e+00 +0.0000000000000000e+00 +1.1599999165637856e+01 -3.2295081488005792e-02 -5.9277110452534676e-01 +5.8971473923317046e-03
1.1699999999999974e+01 +8.1491237911838788e+00 +0.0000000000000000e+00 +1.1699999143872743e+01 -3.2295184168066954e-02 -5.9277145861270786e-01 +5.8971995989956496e-03
1.1799999999999974e+01 +8.1490572476071499e+00 +0.0000000000000000e+00 +1.1799999121732370e+01 -3.2295287188251684e-02 -5.9277181404373558e-01 +5.8972518809612866e-03
