# trajectory
# s[mm] rx[mm] ry[mm] rz[mm] px[rad] py[rad] pz[rad]
0.0000000000000000e+00 +8.1649999999999991e+00 +0.0000000000000000e+00 +0.0000000000000000e+00 +0.0000000000000000e+00 +0.0000000000000000e+00 +1.0000000000000000e+00
1.0000000000000001e-01 +8.1649997169358706e+00 +0.0000000000000000e+00 +9.9999999999465836e-02 -5.6612825342502117e-06 +0.0000000000000000e+00 +9.9999999998397493e-01
2.0000000000000001e-01 +8.1649988677434955e+00 +0.0000000000000000e+00 +1.9999999999572665e-01 -1.1322564941968211e-05 +0.0000000000000000e+00 +9.9999999993589972e-01
3.0000000000000004e-01 +8.1649974524228828e+00 +0.0000000000000000e+00 +2.9999999998557747e-01 -1.6983847312701369e-05 +0.0000000000000000e+00 +9.9999999985577437e-01
4.0000000000000002e-01 +8.1649954709740307e+00 +0.0000000000000000e+00 +3.9999999996581320e-01 -2.2645129728650383e-05 +0.0000000000000000e+00 +9.9999999974359899e-01
5.0000000000000000e-01 +8.1649929233969321e+00 +0.0000000000000000e+00 +4.9999999993322891e-01 -2.8306412264669160e-05 +0.0000000000000000e+00 +9.9999999959937347e-01
5.9999999999999998e-01 +8.1649898096915710e+00 +0.0000000000000000e+00 +5.9999999988461949e-01 -3.3967694988264728e-05 +0.0000000000000000e+00 +9.9999999942309781e-01
6.9999999999999996e-01 +8.1649861298579260e+00 +0.0000000000000000e+00 +6.9999999981678007e-01 -3.9628977959597216e-05 +0.0000000000000000e+00 +9.9999999921477201e-01
7.9999999999999993e-01 +8.1649818838959689e+00 +0.0000000000000000e+00 +7.9999999972650560e-01 -4.5290261231479863e-05 +0.0000000000000000e+00 +9.9999999897439606e-01
8.9999999999999991e-01 +8.1649770718056676e+00 +0.0000000000000000e+00 +8.9999999961059096e-01 -5.0951544849379102e-05 +0.0000000000000000e+00 +9.9999999870196998e-01
9.9999999999999989e-01 +8.1649716935869865e+00 +0.0000000000000000e+00 +9.9999999946583129e-01 -5.6612828851414667e-05 +0.0000000000000000e+00 +9.9999999839749376e-01
1.0999999999999999e+00 +8.1649657492398848e+00 +0.0000000000000000e+00 +1.0999999992890215e+00 -6.2274113268359746e-05 +0.0000000000000000e+00 +9.9999999806096740e-01
1.2000000000000000e+00 +8.1649592387643182e+00 +0.0000000000000000e+00 +1.1999999990769565e+00 -6.7935398123641197e-05 +0.0000000000000000e+00 +9.9999999769239079e-01
1.3000000000000000e+00 +8.1649521621602439e+00 +0.0000000000000000e+00 +1.2999999988264312e+00 -7.3596683433339833e-05 +0.0000000000000000e+00 +9.9999999729176403e-01
1.4000000000000001e+00 +8.1649445194276158e+00 +0.0000000000000000e+00 +1.3999999985342408e+00 -7.9257969206190690e-05 +0.0000000000000000e+00 +9.9999999685908714e-01
1.5000000000000002e+00 +8.1649363105663877e+00 +0.0000000000000000e+00 +1.4999999981971803e+00 -8.4919255443583405e-05 +0.0000000000000000e+00 +9.9999999639435999e-01
1.6000000000000003e+00 +8.1649275355765116e+00 +0.0000000000000000e+00 +1.5999999978120445e+00 -9.0580542139562643e-05 +0.0000000000000000e+00 +9.9999999589758271e-01
1.7000000000000004e+00 +8.1649181944579450e+00 +0.0000000000000000e+00 +1.6999999973756283e+00 -9.6241829280828498e-05 +0.0000000000000000e+00 +9.9999999536875517e-01
1.8000000000000005e+00 +8.1649082872106415e+00 +0.0000000000000000e+00 +1.7999999968847271e+00 -1.0190311684673703e-04 +0.0000000000000000e+00 +9.9999999480787738e-01
1.9000000000000006e+00 +8.1648978138345623e+00 +0.0000000000000000e+00 +1.8999999963361356e+00 -1.0756440480930081e-04 +0.0000000000000000e+00 +9.9999999421494945e-01
2.0000000000000004e+00 +8.1648867743296680e+00 +0.0000000000000000e+00 +1.9999999957266488e+00 -1.1322569313318952e-04 +0.0000000000000000e+00 +9.9999999358997127e-01
2.1000000000000005e+00 +8.1648751686959251e+00 +0.0000000000000000e+00 +2.0999999950530617e+00 -1.1888698177639481e-04 +0.0000000000000000e+00 +9.9999999293294284e-01
2.2000000000000006e+00 +8.1648629969333033e+00 +0.0000000000000000e+00 +2.1999999943121691e+00 -1.2454827069753764e-04 +0.0000000000000000e+00 +9.9999999224386416e-01
2.3000000000000007e+00 +8.1648502590417777e+00 +0.0000000000000000e+00 +2.2999999935007662e+00 -1.3020955986317513e-04 +0.0000000000000000e+00 +9.9999999152273522e-01
2.4000000000000008e+00 +8.1648369550213236e+00 +0.0000000000000000e+00 +2.3999999926156477e+00 -1.3587084924846470e-04 +0.0000000000000000e+00 +9.9999999076955615e-01
2.5000000000000009e+00 +8.1648230848719212e+00 +0.0000000000000000e+00 +2.4999999916536089e+00 -1.4153213883716392e-04 +0.0000000000000000e+00 +9.9999998998432682e-01
2.6000000000000010e+00 +8.1648086485935494e+00 +0.0000000000000000e+00 +2.5999999906114448e+00 -1.4719342862163040e-04 +0.0000000000000000e+00 +9.9999998916704724e-01
2.7000000000000011e+00 +8.1647936461861903e+00 +0.0000000000000000e+00 +2.6999999894859501e+00 -1.5285471860282141e-04 +0.0000000000000000e+00 +9.9999998831771741e-01
2.8000000000000012e+00 +8.1647780776498227e+00 +0.0000000000000000e+00 +2.7999999882739197e+00 -1.5851600879029375e-04 +0.0000000000000000e+00 +9.9999998743633733e-01
2.9000000000000012e+00 +8.1647619429844251e+00 +0.0000000000000000e+00 +2.8999999869721491e+00 -1.6417729920220329e-04 +0.0000000000000000e+00 +9.9999998652290700e-01
3.0000000000000013e+00 +8.1647452421899747e+00 +0.0000000000000000e+00 +2.9999999855774329e+00 -1.6983858986530467e-04 +0.0000000000000000e+00 +9.9999998557742642e-01
3.1000000000000014e+00 +8.1647279752664428e+00 +0.0000000000000000e+00 +3.0999999840865660e+00 -1.7549988081495086e-04 +0.0000000000000000e+00 +9.9999998459989559e-01
3.2000000000000015e+00 +8.1647101422138011e+00 +0.0000000000000000e+00 +3.1999999824963434e+00 -1.8116117209509270e-04 +0.0000000000000000e+00 +9.9999998359031450e-01
3.3000000000000016e+00 +8.1646917430320123e+00 +0.0000000000000000e+00 +3.2999999808035603e+00 -1.8682246375827834e-04 +0.0000000000000000e+00 +9.9999998254868316e-01
3.4000000000000017e+00 +8.1646727777210355e+00 +0.0000000000000000e+00 +3.3999999790050115e+00 -1.9248375586565278e-04 +0.0000000000000000e+00 +9.9999998147500146e-01
3.5000000000000018e+00 +8.1646532462808228e+00 +0.0000000000000000e+00 +3.4999999770974921e+00 -1.9814504848695717e-04 +0.0000000000000000e+00 +9.9999998036926951e-01
3.6000000000000019e+00 +8.1646331487113191e+00 +0.0000000000000000e+00 +3.5999999750777971e+00 -2.0380634170052823e-04 +0.0000000000000000e+00 +9.9999997923148720e-01
3.7000000000000020e+00 +8.1646124850124604e+00 +0.0000000000000000e+00 +3.6999999729427211e+00 -2.0946763559329749e-04 +0.0000000000000000e+00 +9.9999997806165442e-01
3.8000000000000020e+00 +8.1645912551841739e+00 +0.0000000000000000e+00 +3.7999999706890595e+00 -2.1512893026079063e-04 +0.0000000000000000e+00 +9.9999997685977127e-01
3.9000000000000021e+00 +8.1645694592263780e+00 +0.0000000000000000e+00 +3.8999999683136068e+00 -2.2079022580712664e-04 +0.0000000000000000e+00 +9.9999997562583764e-01
4.0000000000000018e+00 +8.1645470971389784e+00 +0.0000000000000000e+00 +3.9999999658131586e+00 -2.2645152234501698e-04 +0.0000000000000000e+00 +9.9999997435985355e-01
4.1000000000000014e+00 +8.1645241689218704e+00 +0.0000000000000000e+00 +4.0999999631845094e+00 -2.3211281999493090e-04 +0.0000000000000000e+00 +9.9999997306181887e-01
4.2000000000000011e+00 +8.1645006745749384e+00 +0.0000000000000000e+00 +4.1999999604244538e+00 -2.3777411887592235e-04 +0.0000000000000000e+00 +9.9999997173173361e-01
4.3000000000000007e+00 +8.1644766140980511e+00 +0.0000000000000000e+00 +4.2999999575297876e+00 -2.4343541909645748e-04 +0.0000000000000000e+00 +9.9999997036959776e-01
4.4000000000000004e+00 +8.1644519874910717e+00 +0.0000000000000000e+00 +4.3999999544973054e+00 -2.4909672075358092e-04 +0.0000000000000000e+00 +9.9999996897541121e-01
4.5000000000000000e+00 +8.1644267947538509e+00 +0.0000000000000000e+00 +4.4999999513238018e+00 -2.5475802393291598e-04 +0.0000000000000000e+00 +9.9999996754917397e-01
4.5999999999999996e+00 +8.1644010358862324e+00 +0.0000000000000000e+00 +4.5999999480060723e+00 -2.6041932870866479e-04 +0.0000000000000000e+00 +9.9999996609088593e-01
4.6999999999999993e+00 +8.1643747108880547e+00 +0.0000000000000000e+00 +4.6999999445409113e+00 -2.6608063514360842e-04 +0.0000000000000000e+00 +9.9999996460054708e-01
4.7999999999999989e+00 +8.1643478197591470e+00 +0.0000000000000000e+00 +4.7999999409251135e+00 -2.7174194328910724e-04 +0.0000000000000000e+00 +9.9999996307815731e-01
4.8999999999999986e+00 +8.1643203624993372e+00 +0.0000000000000000e+00 +4.8999999371554743e+00 -2.7740325318510115e-04 +0.0000000000000000e+00 +9.9999996152371673e-01
4.9999999999999982e+00 +8.1642923391084494e+00 +0.0000000000000000e+00 +4.9999999332287883e+00 -2.8306456486010978e-04 +0.0000000000000000e+00 +9.9999995993722512e-01
5.0999999999999979e+00 +8.1642637495863042e+00 +0.0000000000000000e+00 +5.0999999291418510e+00 -2.8872587833123271e-04 +0.0000000000000000e+00 +9.9999995831868260e-01
5.1999999999999975e+00 +8.1642345939327221e+00 +0.0000000000000000e+00 +5.1999999248914568e+00 -2.9438719360414998e-04 +0.0000000000000000e+00 +9.9999995666808905e-01
5.2999999999999972e+00 +8.1642048721475238e+00 +0.0000000000000000e+00 +5.2999999204744004e+00 -3.0004851067312225e-04 +0.0000000000000000e+00 +9.9999995498544447e-01
5.3999999999999968e+00 +8.1641745842305280e+00 +0.0000000000000000e+00 +5.3999999158874772e+00 -3.0570982952099116e-04 +0.0000000000000000e+00 +9.9999995327074886e-01
5.4999999999999964e+00 +8.1641437301815607e+00 +0.0000000000000000e+00 +5.4999999111274818e+00 -3.1137115011917974e-04 +0.0000000000000000e+00 +9.9999995152400212e-01
5.5999999999999961e+00 +8.1641123100004478e+00 +0.0000000000000000e+00 +5.5999999061912096e+00 -3.1703247242769275e-04 +0.0000000000000000e+00 +9.9999994974520434e-01
5.6999999999999957e+00 +8.1640803236870205e+00 +0.0000000000000000e+00 +5.6999999010754543e+00 -3.2269379639511710e-04 +0.0000000000000000e+00 +9.9999994793435543e-01
5.7999999999999954e+00 +8.1640477712411155e+00 +0.0000000000000000e+00 +5.7999998957770122e+00 -3.2835512195862236e-04 +0.0000000000000000e+00 +9.9999994609145537e-01
5.8999999999999950e+00 +8.1640146526625781e+00 +0.0000000000000000e+00 +5.8999998902926771e+00 -3.3401644904396105e-04 +0.0000000000000000e+00 +9.9999994421650418e-01
5.9999999999999947e+00 +8.1639809679512592e+00 +0.0000000000000000e+00 +5.9999998846192444e+00 -3.3967777756546924e-04 +0.0000000000000000e+00 +9.9999994230950195e-01
6.0999999999999943e+00 +8.1639467171070201e+00 +0.0000000000000000e+00 +6.0999998787535086e+00 -3.4533910742692842e-04 +0.0000000000000000e+00 +9.9999994037044859e-01
6.1999999999999940e+00 +8.1639119001297313e+00 +0.0000000000000000e+00 +6.1999998726922652e+00 -3.5100043853104180e-04 +0.0000000000000000e+00 +9.9999993839934409e-01
6.2999999999999936e+00 +8.1638765170192737e+00 +0.0000000000000000e+00 +6.2999998664323087e+00 -3.5666177078891060e-04 +0.0000000000000000e+00 +9.9999993639618856e-01
6.3999999999999932e+00 +8.1638405677755372e+00 +0.0000000000000000e+00 +6.3999998599704346e+00 -3.6232310412089545e-04 +0.0000000000000000e+00 +9.9999993436098189e-01
6.4999999999999929e+00 +8.1638040523984170e+00 +0.0000000000000000e+00 +6.4999998533034367e+00 -3.6798443845661636e-04 +0.0000000000000000e+00 +9.9999993229372419e-01
6.5999999999999925e+00 +8.1637669708878153e+00 +0.0000000000000000e+00 +6.5999998464281111e+00 -3.7364577373495282e-04 +0.0000000000000000e+00 +9.9999993019441535e-01
6.6999999999999922e+00 +8.1637293232436399e+00 +0.0000000000000000e+00 +6.6999998393412517e+00 -3.7930710990404382e-04 +0.0000000000000000e+00 +9.9999992806305549e-01
6.7999999999999918e+00 +8.1636911094658053e+00 +0.0000000000000000e+00 +6.7999998320396537e+00 -3.8496844692128776e-04 +0.0000000000000000e+00 +9.9999992589964459e-01
6.8999999999999915e+00 +8.1636523295542283e+00 +0.0000000000000000e+00 +6.8999998245201120e+00 -3.9062978475334253e-04 +0.0000000000000000e+00 +9.9999992370418267e-01
6.9999999999999911e+00 +8.1636129835088287e+00 +0.0000000000000000e+00 +6.9999998167794217e+00 -3.9629112337612562e-04 +0.0000000000000000e+00 +9.9999992147666961e-01
7.0999999999999908e+00 +8.1635730713295267e+00 +0.0000000000000000e+00 +7.0999998088143776e+00 -4.0195246277481393e-04 +0.0000000000000000e+00 +9.9999991921710552e-01
7.1999999999999904e+00 +8.1635325930162477e+00 +0.0000000000000000e+00 +7.1999998006217742e+00 -4.0761380294384393e-04 +0.0000000000000000e+00 +9.9999991692549028e-01
7.2999999999999901e+00 +8.1634915485689135e+00 +0.0000000000000000e+00 +7.2999997921984070e+00 -4.1327514388691161e-04 +0.0000000000000000e+00 +9.9999991460182402e-01
7.3999999999999897e+00 +8.1634499379874441e+00 +0.0000000000000000e+00 +7.3999997835410705e+00 -4.1893648561697259e-04 +0.0000000000000000e+00 +9.9999991224610663e-01
7.4999999999999893e+00 +8.1634077612717615e+00 +0.0000000000000000e+00 +7.4999997746465601e+00 -4.2459782815624202e-04 +0.0000000000000000e+00 +9.9999990985833809e-01
7.5999999999999890e+00 +8.1633650184217839e+00 +0.0000000000000000e+00 +7.5999997655116704e+00 -4.3025917153619465e-04 +0.0000000000000000e+00 +9.9999990743851841e-01
7.6999999999999886e+00 +8.1633217094374242e+00 +0.0000000000000000e+00 +7.6999997561331961e+00 -4.3592051579756478e-04 +0.0000000000000000e+00 +9.9999990498664748e-01
7.7999999999999883e+00 +8.1632778343185937e+00 +0.0000000000000000e+00 +7.7999997465079316e+00 -4.4158186099034637e-04 +0.0000000000000000e+00 +9.9999990250272530e-01
7.8999999999999879e+00 +8.1632333930651946e+00 +0.0000000000000000e+00 +7.8999997366326724e+00 -4.4724320717379293e-04 +0.0000000000000000e+00 +9.9999989998675187e-01
7.9999999999999876e+00 +8.1631883856771239e+00 +0.0000000000000000e+00 +7.9999997265042131e+00 -4.5290455441641768e-04 +0.0000000000000000e+00 +9.9999989743872708e-01
8.0999999999999872e+00 +8.1631428121542733e+00 +0.0000000000000000e+00 +8.0999997161193491e+00 -4.5856590279562821e-04 +0.0000000000000000e+00 +9.9999989485865093e-01
8.1999999999999869e+00 +8.1630966724965237e+00 +0.0000000000000000e+00 +8.1999997054748750e+00 -4.6422725239370896e-04 +0.0000000000000000e+00 +9.9999989224652330e-01
8.2999999999999865e+00 +8.1630499667037508e+00 +0.0000000000000000e+00 +8.2999996945675854e+00 -4.6988860329380349e-04 +0.0000000000000000e+00 +9.9999988960234421e-01
8.3999999999999861e+00 +8.1630026947758196e+00 +0.0000000000000000e+00 +8.3999996833942756e+00 -4.7554995557954921e-04 +0.0000000000000000e+00 +9.9999988692611352e-01
8.4999999999999858e+00 +8.1629548567125862e+00 +0.0000000000000000e+00 +8.4999996719517394e+00 -4.8121130933507703e-04 +0.0000000000000000e+00 +9.9999988421783126e-01
8.5999999999999854e+00 +8.1629064525138997e+00 +0.0000000000000000e+00 +8.5999996602367723e+00 -4.8687266464501124e-04 +0.0000000000000000e+00 +9.9999988147749730e-01
8.6999999999999851e+00 +8.1628574821796018e+00 +0.0000000000000000e+00 +8.6999996482461697e+00 -4.9253402159446925e-04 +0.0000000000000000e+00 +9.9999987870511153e-01
8.7999999999999847e+00 +8.1628079457095239e+00 +0.0000000000000000e+00 +8.7999996359767252e+00 -4.9819538026906135e-04 +0.0000000000000000e+00 +9.9999987590067396e-01
8.8999999999999844e+00 +8.1627578431034884e+00 +0.0000000000000000e+00 +8.8999996234252343e+00 -5.0385674075489070e-04 +0.0000000000000000e+00 +9.9999987306418447e-01
8.9999999999999840e+00 +8.1627071743613104e+00 +0.0000000000000000e+00 +8.9999996105884925e+00 -5.0951810313855275e-04 +0.0000000000000000e+00 +9.9999987019564296e-01
9.0999999999999837e+00 +8.1626559394827947e+00 +0.0000000000000000e+00 +9.0999995974632935e+00 -5.1517946750713538e-04 +0.0000000000000000e+00 +9.9999986729504942e-01
9.1999999999999833e+00 +8.1626041384677404e+00 +0.0000000000000000e+00 +9.1999995840464326e+00 -5.2084083394821849e-04 +0.0000000000000000e+00 +9.9999986436240373e-01
9.2999999999999829e+00 +8.1625517713159343e+00 +0.0000000000000000e+00 +9.2999995703347054e+00 -5.2650220254987356e-04 +0.0000000000000000e+00 +9.9999986139770580e-01
9.3999999999999826e+00 +8.1624988380271564e+00 +0.0000000000000000e+00 +9.3999995563249055e+00 -5.3216357340066375e-04 +0.0000000000000000e+00 +9.9999985840095562e-01
9.4999999999999822e+00 +8.1624453386011773e+00 +0.0000000000000000e+00 +9.4999995420138283e+00 -5.3782494658964359e-04 +0.0000000000000000e+00 +9.9999985537215308e-01
9.5999999999999819e+00 +8.1623912730377572e+00 +0.0000000000000000e+00 +9.5999995273982677e+00 -5.4348632220635831e-04 +0.0000000000000000e+00 +9.9999985231129795e-01
9.6999999999999815e+00 +8.1623366413366512e+00 +0.0000000000000000e+00 +9.6999995124750189e+00 -5.4914770034084417e-04 +0.0000000000000000e+00 +9.9999984921839036e-01
9.7999999999999812e+00 +8.1622814434976014e+00 +0.0000000000000000e+00 +9.7999994972408775e+00 -5.5480908108362773e-04 +0.0000000000000000e+00 +9.9999984609343007e-01
9.8999999999999808e+00 +8.1622256795203434e+00 +0.0000000000000000e+00 +9.8999994816926371e+00 -5.6047046452572581e-04 +0.0000000000000000e+00 +9.9999984293641697e-01
9.9999999999999805e+00 +8.1621693494046035e+00 +0.0000000000000000e+00 +9.9999994658270932e+00 -5.6613185075864495e-04 +0.0000000000000000e+00 +9.9999983974735107e-01
1.0099999999999980e+01 +8.1621124531500957e+00 +0.0000000000000000e+00 +1.0099999449641039e+01 -5.7179323987421003e-04 +0.0000000000000000e+00 +9.9999983652623214e-01
1.0199999999999980e+01 +8.1620549907565287e+00 +0.0000000000000000e+00 +1.0199999433131271e+01 -5.7745463196267851e-04 +0.0000000000000000e+00 +9.9999983327306019e-01
1.0299999999999979e+01 +8.1619969622236006e+00 +0.0000000000000000e+00 +1.0299999416294582e+01 -5.8311602711085540e-04 +0.0000000000000000e+00 +9.9999982998783510e-01
1.0399999999999979e+01 +8.1619383675510022e+00 +0.0000000000000000e+00 +1.0399999399127768e+01 -5.8877742540192220e-04 +0.0000000000000000e+00 +9.9999982667055676e-01
1.0499999999999979e+01 +8.1618792067384138e+00 +0.0000000000000000e+00 +1.0499999381627624e+01 -5.9443882691543779e-04 +0.0000000000000000e+00 +9.9999982332122506e-01
1.0599999999999978e+01 +8.1618194797855104e+00 +0.0000000000000000e+00 +1.0599999363790944e+01 -6.0010023172733904e-04 +0.0000000000000000e+00 +9.9999981993983988e-01
1.0699999999999978e+01 +8.1617591866919561e+00 +0.0000000000000000e+00 +1.0699999345614524e+01 -6.0576163990994135e-04 +0.0000000000000000e+00 +9.9999981652640113e-01
1.0799999999999978e+01 +8.1616983274574135e+00 +0.0000000000000000e+00 +1.0799999327095156e+01 -6.1142305153193946e-04 +0.0000000000000000e+00 +9.9999981308090868e-01
1.0899999999999977e+01 +8.1616369020815327e+00 +0.0000000000000000e+00 +1.0899999308229637e+01 -6.1708446665840804e-04 +0.0000000000000000e+00 +9.9999980960336254e-01
1.0999999999999977e+01 +8.1615749105639619e+00 +0.0000000000000000e+00 +1.0999999289014760e+01 -6.2274588535080251e-04 +0.0000000000000000e+00 +9.9999980609376249e-01
1.1099999999999977e+01 +8.1615123529043423e+00 +0.0000000000000000e+00 +1.1099999269447320e+01 -6.2840730766695950e-04 +0.0000000000000000e+00 +9.9999980255210852e-01
1.1199999999999976e+01 +8.1614492291023062e+00 +0.0000000000000000e+00 +1.1199999249524113e+01 -6.3406873366109802e-04 +0.0000000000000000e+00 +9.9999979897840052e-01
1.1299999999999976e+01 +8.1613855391574859e+00 +0.0000000000000000e+00 +1.1299999229241932e+01 -6.3973016338381996e-04 +0.0000000000000000e+00 +9.9999979537263828e-01
1.1399999999999975e+01 +8.1613212830695048e+00 +0.0000000000000000e+00 +1.1399999208597572e+01 -6.4539159688211073e-04 +0.0000000000000000e+00 +9.9999979173482179e-01
1.1499999999999975e+01 +8.1612564608379827e+00 +0.0000000000000000e+00 +1.1499999187587829e+01 -6.5105303419934026e-04 +0.0000000000000000e+00 +9.9999978806495105e-01
1.1599999999999975e+01 +8.1611910724625361e+00 +0.0000000000000000e+00 +1.1599999166209495e+01 -6.5671447537526387e-04 +0.0000000000000000e+00 +9.9999978436302583e-01
1.1699999999999974e+01 +8.1611251179427775e+00 +0.0000000000000000e+00 +1.1699999144459365e+01 -6.6237592044602288e-04 +0.0000000000000000e+00 +9.9999978062904615e-01
1.1799999999999974e+01 +8.1610585972783163e+00 +0.0000000000000000e+00 +1.1799999122334235e+01 -6.6803736944414554e-04 +0.0000000000000000e+00 +9.9999977686301178e-01
