# trajectory
# s[mm] rx[mm] ry[mm] rz[mm] px[rad] py[rad] pz[rad]
0.0000000000000000e+00 +8.1529999999999987e+00 +0.0000000000000000e+00 +0.0000000000000000e+00 +0.0000000000000000e+00 +0.0000000000000000e+00 +1.0000000000000000e+00
-1.0000000000000001e-01 +8.1529997166575825e+00 +0.0000000000000000e+00 -9.9999999999464781e-02 +5.6668486961098044e-06 +0.0000000000000000e+00 +9.9999999998394340e-01
-2.0000000000000001e-01 +8.1529988666301847e+00 +0.0000000000000000e+00 -1.9999999999571824e-01 +1.1333699626804093e-05 +0.0000000000000000e+00 +9.9999999993577360e-01
-3.0000000000000004e-01 +8.1529974499175850e+00 +0.0000000000000000e+00 -2.9999999998554905e-01 +1.7000552735425064e-05 +0.0000000000000000e+00 +9.9999999985549060e-01
-4.0000000000000002e-01 +8.1529954665195667e+00 +0.0000000000000000e+00 -3.9999999996574592e-01 +2.2667407976877398e-05 +0.0000000000000000e+00 +9.9999999974309428e-01
-5.0000000000000000e-01 +8.1529929164359203e+00 +0.0000000000000000e+00 -4.9999999993309752e-01 +2.8334265317628182e-05 +0.0000000000000000e+00 +9.9999999959858465e-01
-5.9999999999999998e-01 +8.1529897996664342e+00 +0.0000000000000000e+00 -5.9999999988439245e-01 +3.4001124735706859e-05 +0.0000000000000000e+00 +9.9999999942196172e-01
-6.9999999999999996e-01 +8.1529861162109043e+00 +0.0000000000000000e+00 -6.9999999981641947e-01 +3.9667986220705177e-05 +0.0000000000000000e+00 +9.9999999921322535e-01
-7.9999999999999993e-01 +8.1529818660691227e+00 +0.0000000000000000e+00 -7.9999999972596714e-01 +4.5334849773777187e-05 +0.0000000000000000e+00 +9.9999999897237557e-01
-8.9999999999999991e-01 +8.1529770492408815e+00 +0.0000000000000000e+00 -8.9999999960982413e-01 +5.1001715407639218e-05 +0.0000000000000000e+00 +9.9999999869941236e-01
-9.9999999999999989e-01 +8.1529716657259712e+00 +0.0000000000000000e+00 -9.9999999946477913e-01 +5.6668583146569898e-05 +0.0000000000000000e+00 +9.9999999839433573e-01
-1.0999999999999999e+00 +8.1529657155241804e+00 +0.0000000000000000e+00 -1.0999999992876208e+00 +6.2335453026410173e-05 +0.0000000000000000e+00 +9.9999999805714557e-01
-1.2000000000000000e+00 +8.1529591986352923e+00 +0.0000000000000000e+00 -1.1999999990751378e+00 +6.8002325094563361e-05 +0.0000000000000000e+00 +9.9999999768784176e-01
-1.3000000000000000e+00 +8.1529521150590867e+00 +0.0000000000000000e+00 -1.2999999988241187e+00 +7.3669199409995178e-05 +0.0000000000000000e+00 +9.9999999728642441e-01
-1.4000000000000001e+00 +8.1529444647953344e+00 +0.0000000000000000e+00 -1.3999999985313520e+00 +7.9336076043233844e-05 +0.0000000000000000e+00 +9.9999999685289342e-01
-1.5000000000000002e+00 +8.1529362478437992e+00 +0.0000000000000000e+00 -1.4999999981936267e+00 +8.5002955076370174e-05 +0.0000000000000000e+00 +9.9999999638724868e-01
-1.6000000000000003e+00 +8.1529274642042360e+00 +0.0000000000000000e+00 -1.5999999978077313e+00 +9.0669836603057645e-05 +0.0000000000000000e+00 +9.9999999588949018e-01
-1.7000000000000004e+00 +8.1529181138763906e+00 +0.0000000000000000e+00 -1.6999999973704543e+00 +9.6336720728512564e-05 +0.0000000000000000e+00 +9.9999999535961792e-01
-1.8000000000000005e+00 +8.1529081968599986e+00 +0.0000000000000000e+00 -1.7999999968785843e+00 +1.0200360756951418e-04 +0.0000000000000000e+00 +9.9999999479763180e-01
-1.9000000000000006e+00 +8.1528977131547808e+00 +0.0000000000000000e+00 -1.8999999963289100e+00 +1.0767049725440484e-04 +0.0000000000000000e+00 +9.9999999420353181e-01
-2.0000000000000004e+00 +8.1528866627604479e+00 +0.0000000000000000e+00 -1.9999999957182202e+00 +1.1333738992309016e-04 +0.0000000000000000e+00 +9.9999999357731784e-01
-2.1000000000000005e+00 +8.1528750456766925e+00 +0.0000000000000000e+00 -2.0999999950433033e+00 +1.1900428572658522e-04 +0.0000000000000000e+00 +9.9999999291898978e-01
-2.2000000000000006e+00 +8.1528628619031931e+00 +0.0000000000000000e+00 -2.1999999943009478e+00 +1.2467118482202070e-04 +0.0000000000000000e+00 +9.9999999222854763e-01
-2.3000000000000007e+00 +8.1528501114396121e+00 +0.0000000000000000e+00 -2.2999999934879423e+00 +1.3033808736764897e-04 +0.0000000000000000e+00 +9.9999999150599128e-01
-2.4000000000000008e+00 +8.1528367942855979e+00 +0.0000000000000000e+00 -2.3999999926010753e+00 +1.3600499352239018e-04 +0.0000000000000000e+00 +9.9999999075132062e-01
-2.5000000000000009e+00 +8.1528229104407810e+00 +0.0000000000000000e+00 -2.4999999916371358e+00 +1.4167190344583215e-04 +0.0000000000000000e+00 +9.9999998996453565e-01
-2.6000000000000010e+00 +8.1528084599047776e+00 +0.0000000000000000e+00 -2.5999999905929121e+00 +1.4733881729823054e-04 +0.0000000000000000e+00 +9.9999998914563626e-01
-2.7000000000000011e+00 +8.1527934426771846e+00 +0.0000000000000000e+00 -2.6999999894651925e+00 +1.5300573524050883e-04 +0.0000000000000000e+00 +9.9999998829462233e-01
-2.8000000000000012e+00 +8.1527778587575863e+00 +0.0000000000000000e+00 -2.7999999882507658e+00 +1.5867265743425835e-04 +0.0000000000000000e+00 +9.9999998741149376e-01
-2.9000000000000012e+00 +8.1527617081455492e+00 +0.0000000000000000e+00 -2.8999999869464208e+00 +1.6433958404173826e-04 +0.0000000000000000e+00 +9.9999998649625044e-01
-3.0000000000000013e+00 +8.1527449908406240e+00 +0.0000000000000000e+00 -2.9999999855489454e+00 +1.7000651522587558e-04 +0.0000000000000000e+00 +9.9999998554889225e-01
-3.1000000000000014e+00 +8.1527277068423452e+00 +0.0000000000000000e+00 -3.0999999840551284e+00 +1.7567345115026523e-04 +0.0000000000000000e+00 +9.9999998456941908e-01
-3.2000000000000015e+00 +8.1527098561502296e+00 +0.0000000000000000e+00 -3.1999999824617587e+00 +1.8134039197916998e-04 +0.0000000000000000e+00 +9.9999998355783093e-01
-3.3000000000000016e+00 +8.1526914387637799e+00 +0.0000000000000000e+00 -3.2999999807656244e+00 +1.8700733787752050e-04 +0.0000000000000000e+00 +9.9999998251412758e-01
-3.4000000000000017e+00 +8.1526724546824791e+00 +0.0000000000000000e+00 -3.3999999789635140e+00 +1.9267428901091529e-04 +0.0000000000000000e+00 +9.9999998143830893e-01
-3.5000000000000018e+00 +8.1526529039057962e+00 +0.0000000000000000e+00 -3.4999999770522159e+00 +1.9834124554562075e-04 +0.0000000000000000e+00 +9.9999998033037485e-01
-3.6000000000000019e+00 +8.1526327864331840e+00 +0.0000000000000000e+00 -3.5999999750285183e+00 +2.0400820764857107e-04 +0.0000000000000000e+00 +9.9999997919032524e-01
-3.7000000000000020e+00 +8.1526121022640758e+00 +0.0000000000000000e+00 -3.6999999728892101e+00 +2.0967517548736833e-04 +0.0000000000000000e+00 +9.9999997801815999e-01
-3.8000000000000020e+00 +8.1525908513978891e+00 +0.0000000000000000e+00 -3.7999999706310796e+00 +2.1534214923028233e-04 +0.0000000000000000e+00 +9.9999997681387898e-01
-3.9000000000000021e+00 +8.1525690338340269e+00 +0.0000000000000000e+00 -3.8999999682509152e+00 +2.2100912904625067e-04 +0.0000000000000000e+00 +9.9999997557748199e-01
-4.0000000000000018e+00 +8.1525466495718728e+00 +0.0000000000000000e+00 -3.9999999657455052e+00 +2.2667611510487865e-04 +0.0000000000000000e+00 +9.9999997430896892e-01
-4.1000000000000014e+00 +8.1525236986107927e+00 +0.0000000000000000e+00 -4.0999999631116379e+00 +2.3234310757594892e-04 +0.0000000000000000e+00 +9.9999997300833965e-01
-4.2000000000000011e+00 +8.1525001809501383e+00 +0.0000000000000000e+00 -4.1999999603461022e+00 +2.3801010662402678e-04 +0.0000000000000000e+00 +9.9999997167559396e-01
-4.3000000000000007e+00 +8.1524760965892433e+00 +0.0000000000000000e+00 -4.2999999574456860e+00 +2.4367711240306586e-04 +0.0000000000000000e+00 +9.9999997031073184e-01
-4.4000000000000004e+00 +8.1524514455274275e+00 +0.0000000000000000e+00 -4.3999999544071775e+00 +2.4934412505591764e-04 +0.0000000000000000e+00 +9.9999996891375298e-01
-4.5000000000000000e+00 +8.1524262277639981e+00 +0.0000000000000000e+00 -4.4999999512273661e+00 +2.5501114471433153e-04 +0.0000000000000000e+00 +9.9999996748465736e-01
-4.5999999999999996e+00 +8.1524004432982480e+00 +0.0000000000000000e+00 -4.5999999479030391e+00 +2.6067817149895488e-04 +0.0000000000000000e+00 +9.9999996602344476e-01
-4.6999999999999993e+00 +8.1523740921294578e+00 +0.0000000000000000e+00 -4.6999999444309850e+00 +2.6634520551933308e-04 +0.0000000000000000e+00 +9.9999996453011497e-01
-4.7999999999999989e+00 +8.1523471742568994e+00 +0.0000000000000000e+00 -4.7999999408079921e+00 +2.7201224687390952e-04 +0.0000000000000000e+00 +9.9999996300466798e-01
-4.8999999999999986e+00 +8.1523196896798353e+00 +0.0000000000000000e+00 -4.8999999370308487e+00 +2.7767929565002575e-04 +0.0000000000000000e+00 +9.9999996144710357e-01
-4.9999999999999982e+00 +8.1522916383975197e+00 +0.0000000000000000e+00 -4.9999999330963423e+00 +2.8334635192392145e-04 +0.0000000000000000e+00 +9.9999995985742152e-01
-5.0999999999999979e+00 +8.1522630204091993e+00 +0.0000000000000000e+00 -5.0999999290012621e+00 +2.8901341576073445e-04 +0.0000000000000000e+00 +9.9999995823562182e-01
-5.1999999999999975e+00 +8.1522338357141138e+00 +0.0000000000000000e+00 -5.1999999247423965e+00 +2.9468048721450091e-04 +0.0000000000000000e+00 +9.9999995658170426e-01
-5.2999999999999972e+00 +8.1522040843115011e+00 +0.0000000000000000e+00 -5.2999999203165329e+00 +3.0034756632815518e-04 +0.0000000000000000e+00 +9.9999995489566862e-01
-5.3999999999999968e+00 +8.1521737662005922e+00 +0.0000000000000000e+00 -5.3999999157204597e+00 +3.0601465313353002e-04 +0.0000000000000000e+00 +9.9999995317751489e-01
-5.4999999999999964e+00 +8.1521428813806178e+00 +0.0000000000000000e+00 -5.4999999109509652e+00 +3.1168174765135653e-04 +0.0000000000000000e+00 +9.9999995142724285e-01
-5.5999999999999961e+00 +8.1521114298508053e+00 +0.0000000000000000e+00 -5.5999999060048378e+00 +3.1734884989126431e-04 +0.0000000000000000e+00 +9.9999994964485239e-01
-5.6999999999999957e+00 +8.1520794116103819e+00 +0.0000000000000000e+00 -5.6999999008788649e+00 +3.2301595985178140e-04 +0.0000000000000000e+00 +9.9999994783034341e-01
-5.7999999999999954e+00 +8.1520468266585766e+00 +0.0000000000000000e+00 -5.7999998955698358e+00 +3.2868307752033436e-04 +0.0000000000000000e+00 +9.9999994598371578e-01
-5.8999999999999950e+00 +8.1520136749946204e+00 +0.0000000000000000e+00 -5.8999998900745378e+00 +3.3435020287324844e-04 +0.0000000000000000e+00 +9.9999994410496928e-01
-5.9999999999999947e+00 +8.1519799566177458e+00 +0.0000000000000000e+00 -5.9999998843897595e+00 +3.4001733587574743e-04 +0.0000000000000000e+00 +9.9999994219410393e-01
-6.0999999999999943e+00 +8.1519456715271907e+00 +0.0000000000000000e+00 -6.0999998785122882e+00 +3.4568447648237723e-04 +0.0000000000000000e+00 +9.9999994025111949e-01
-6.1999999999999940e+00 +8.1519108197221968e+00 +0.0000000000000000e+00 -6.1999998724389123e+00 +3.5135162464166155e-04 +0.0000000000000000e+00 +9.9999993827601596e-01
-6.2999999999999936e+00 +8.1518754012020125e+00 +0.0000000000000000e+00 -6.2999998661664200e+00 +3.5701878030075767e-04 +0.0000000000000000e+00 +9.9999993626879313e-01
-6.3999999999999932e+00 +8.1518394159658882e+00 +0.0000000000000000e+00 -6.3999998596915999e+00 +3.6268594340587899e-04 +0.0000000000000000e+00 +9.9999993422945099e-01
-6.4999999999999929e+00 +8.1518028640130851e+00 +0.0000000000000000e+00 -6.4999998530112393e+00 +3.6835311390229426e-04 +0.0000000000000000e+00 +9.9999993215798932e-01
-6.5999999999999925e+00 +8.1517657453428640e+00 +0.0000000000000000e+00 -6.5999998461221265e+00 +3.7402029173432704e-04 +0.0000000000000000e+00 +9.9999993005440813e-01
-6.6999999999999922e+00 +8.1517280599544950e+00 +0.0000000000000000e+00 -6.6999998390210500e+00 +3.7968747684535489e-04 +0.0000000000000000e+00 +9.9999992791870729e-01
-6.7999999999999918e+00 +8.1516898078472533e+00 +0.0000000000000000e+00 -6.7999998317047972e+00 +3.8535466917780851e-04 +0.0000000000000000e+00 +9.9999992575088659e-01
-6.8999999999999915e+00 +8.1516509890204194e+00 +0.0000000000000000e+00 -6.8999998241701563e+00 +3.9102186867317107e-04 +0.0000000000000000e+00 +9.9999992355094602e-01
-6.9999999999999911e+00 +8.1516116034732811e+00 +0.0000000000000000e+00 -6.9999998164139159e+00 +3.9668907527197727e-04 +0.0000000000000000e+00 +9.9999992131888549e-01
-7.0999999999999908e+00 +8.1515716512051295e+00 +0.0000000000000000e+00 -7.0999998084328633e+00 +4.0235628891381261e-04 +0.0000000000000000e+00 +9.9999991905470487e-01
-7.1999999999999904e+00 +8.1515311322152648e+00 +0.0000000000000000e+00 -7.1999998002237859e+00 +4.0802350953731239e-04 +0.0000000000000000e+00 +9.9999991675840416e-01
-7.2999999999999901e+00 +8.1514900465029907e+00 +0.0000000000000000e+00 -7.2999997917834731e+00 +4.1369073708016088e-04 +0.0000000000000000e+00 +9.9999991442998315e-01
-7.3999999999999897e+00 +8.1514483940676197e+00 +0.0000000000000000e+00 -7.3999997831087123e+00 +4.1935797147909040e-04 +0.0000000000000000e+00 +9.9999991206944183e-01
-7.4999999999999893e+00 +8.1514061749084679e+00 +0.0000000000000000e+00 -7.4999997741962909e+00 +4.2502521266988029e-04 +0.0000000000000000e+00 +9.9999990967677999e-01
-7.5999999999999890e+00 +8.1513633890248602e+00 +0.0000000000000000e+00 -7.5999997650429973e+00 +4.3069246058735595e-04 +0.0000000000000000e+00 +9.9999990725199761e-01
-7.6999999999999886e+00 +8.1513200364161271e+00 +0.0000000000000000e+00 -7.6999997556456199e+00 +4.3635971516538783e-04 +0.0000000000000000e+00 +9.9999990479509471e-01
-7.7999999999999883e+00 +8.1512761170816059e+00 +0.0000000000000000e+00 -7.7999997460009460e+00 +4.4202697633689044e-04 +0.0000000000000000e+00 +9.9999990230607105e-01
-7.8999999999999879e+00 +8.1512316310206412e+00 +0.0000000000000000e+00 -7.8999997361057632e+00 +4.4769424403382120e-04 +0.0000000000000000e+00 +9.9999989978492665e-01
-7.9999999999999876e+00 +8.1511865782325845e+00 +0.0000000000000000e+00 -7.9999997259568607e+00 +4.5336151818717931e-04 +0.0000000000000000e+00 +9.9999989723166138e-01
-8.0999999999999872e+00 +8.1511409587167911e+00 +0.0000000000000000e+00 -8.0999997155510250e+00 +4.5902879872748828e-04 +0.0000000000000000e+00 +9.9999989464627514e-01
-8.1999999999999869e+00 +8.1510947724726268e+00 +0.0000000000000000e+00 -8.1999997048850446e+00 +4.6469608559011378e-04 +0.0000000000000000e+00 +9.9999989202876793e-01
-8.2999999999999865e+00 +8.1510480194994628e+00 +0.0000000000000000e+00 -8.2999996939557068e+00 +4.7036337872058284e-04 +0.0000000000000000e+00 +9.9999988937913964e-01
-8.3999999999999861e+00 +8.1510006997966755e+00 +0.0000000000000000e+00 -8.3999996827598018e+00 +4.7603067807506849e-04 +0.0000000000000000e+00 +9.9999988669739015e-01
-8.4999999999999858e+00 +8.1509528133636415e+00 +0.0000000000000000e+00 -8.4999996712941144e+00 +4.8169798362039076e-04 +0.0000000000000000e+00 +9.9999988398351936e-01
-8.5999999999999854e+00 +8.1509043601997444e+00 +0.0000000000000000e+00 -8.5999996595554347e+00 +4.8736529533401817e-04 +0.0000000000000000e+00 +9.9999988123752714e-01
-8.6999999999999851e+00 +8.1508553403043695e+00 +0.0000000000000000e+00 -8.6999996475405492e+00 +4.9303261320406860e-04 +0.0000000000000000e+00 +9.9999987845941352e-01
-8.7999999999999847e+00 +8.1508057536768987e+00 +0.0000000000000000e+00 -8.7999996352462464e+00 +4.9869993722931089e-04 +0.0000000000000000e+00 +9.9999987564917836e-01
-8.8999999999999844e+00 +8.1507556003167174e+00 +0.0000000000000000e+00 -8.8999996226693145e+00 +5.0436726741916594e-04 +0.0000000000000000e+00 +9.9999987280682145e-01
-8.9999999999999840e+00 +8.1507048802232092e+00 +0.0000000000000000e+00 -8.9999996098065402e+00 +5.1003460379370810e-04 +0.0000000000000000e+00 +9.9999986993234280e-01
-9.0999999999999837e+00 +8.1506535933957522e+00 +0.0000000000000000e+00 -9.0999995966547118e+00 +5.1570194638366667e-04 +0.0000000000000000e+00 +9.9999986702574217e-01
-9.1999999999999833e+00 +8.1506017398337232e+00 +0.0000000000000000e+00 -9.1999995832106176e+00 +5.2136929523042717e-04 +0.0000000000000000e+00 +9.9999986408701957e-01
-9.2999999999999829e+00 +8.1505493195364949e+00 +0.0000000000000000e+00 -9.2999995694710442e+00 +5.2703665038603305e-04 +0.0000000000000000e+00 +9.9999986111617478e-01
-9.3999999999999826e+00 +8.1504963325034332e+00 +0.0000000000000000e+00 -9.3999995554327818e+00 +5.3270401191318696e-04 +0.0000000000000000e+00 +9.9999985811320768e-01
-9.4999999999999822e+00 +8.1504427787338969e+00 +0.0000000000000000e+00 -9.4999995410926150e+00 +5.3837137988525243e-04 +0.0000000000000000e+00 +9.9999985507811806e-01
-9.5999999999999819e+00 +8.1503886582272376e+00 +0.0000000000000000e+00 -9.5999995264473341e+00 +5.4403875438625566e-04 +0.0000000000000000e+00 +9.9999985201090580e-01
-9.6999999999999815e+00 +8.1503339709827980e+00 +0.0000000000000000e+00 -9.6999995114937256e+00 +5.4970613551088676e-04 +0.0000000000000000e+00 +9.9999984891157079e-01
-9.7999999999999812e+00 +8.1502787169999102e+00 +0.0000000000000000e+00 -9.7999994962285779e+00 +5.5537352336450187e-04 +0.0000000000000000e+00 +9.9999984578011281e-01
-9.8999999999999808e+00 +8.1502228962778958e+00 +0.0000000000000000e+00 -9.8999994806486775e+00 +5.6104091806312450e-04 +0.0000000000000000e+00 +9.9999984261653163e-01
-9.9999999999999805e+00 +8.1501665088160653e+00 +0.0000000000000000e+00 -9.9999994647508128e+00 +5.6670831973344759e-04 +0.0000000000000000e+00 +9.9999983942082715e-01
-1.0099999999999980e+01 +8.1501095546137137e+00 +0.0000000000000000e+00 -1.0099999448531772e+01 +5.7237572851233137e-04 +0.0000000000000000e+00 +9.9999983619299915e-01
-1.0199999999999980e+01 +8.1500520336701214e+00 +0.0000000000000000e+00 -1.0199999431988342e+01 +5.7804314454126327e-04 +0.0000000000000000e+00 +9.9999983293304739e-01
-1.0299999999999979e+01 +8.1499939459845585e+00 +0.0000000000000000e+00 -1.0299999415117311e+01 +5.8371056796081616e-04 +0.0000000000000000e+00 +9.9999982964097178e-01
-1.0399999999999979e+01 +8.1499352915562788e+00 +0.0000000000000000e+00 -1.0399999397915465e+01 +5.8937799891014533e-04 +0.0000000000000000e+00 +9.9999982631677198e-01
-1.0499999999999979e+01 +8.1498760703845221e+00 +0.0000000000000000e+00 -1.0499999380379593e+01 +5.9504543752698859e-04 +0.0000000000000000e+00 +9.9999982296044787e-01
-1.0599999999999978e+01 +8.1498162824685139e+00 +0.0000000000000000e+00 -1.0599999362506484e+01 +6.0071288394766636e-04 +0.0000000000000000e+00 +9.9999981957199913e-01
-1.0699999999999978e+01 +8.1497559278074672e+00 +0.0000000000000000e+00 -1.0699999344292923e+01 +6.0638033830708233e-04 +0.0000000000000000e+00 +9.9999981615142564e-01
-1.0799999999999978e+01 +8.1496950064005826e+00 +0.0000000000000000e+00 -1.0799999325735698e+01 +6.1204780073872349e-04 +0.0000000000000000e+00 +9.9999981269872718e-01
-1.0899999999999977e+01 +8.1496335182470467e+00 +0.0000000000000000e+00 -1.0899999306831598e+01 +6.1771527137466039e-04 +0.0000000000000000e+00 +9.9999980921390341e-01
-1.0999999999999977e+01 +8.1495714633460299e+00 +0.0000000000000000e+00 -1.0999999287577408e+01 +6.2338275034554743e-04 +0.0000000000000000e+00 +9.9999980569695424e-01
-1.1099999999999977e+01 +8.1495088416966954e+00 +0.0000000000000000e+00 -1.1099999267969917e+01 +6.2905023778062345e-04 +0.0000000000000000e+00 +9.9999980214787942e-01
-1.1199999999999976e+01 +8.1494456532981889e+00 +0.0000000000000000e+00 -1.1199999248005913e+01 +6.3471773380771156e-04 +0.0000000000000000e+00 +9.9999979856667875e-01
-1.1299999999999976e+01 +8.1493818981496435e+00 +0.0000000000000000e+00 -1.1299999227682182e+01 +6.4038523855321976e-04 +0.0000000000000000e+00 +9.9999979495335189e-01
-1.1399999999999975e+01 +8.1493175762501835e+00 +0.0000000000000000e+00 -1.1399999206995512e+01 +6.4605275214214115e-04 +0.0000000000000000e+00 +9.9999979130789873e-01
-1.1499999999999975e+01 +8.1492526875989171e+00 +0.0000000000000000e+00 -1.1499999185942690e+01 +6.5172027469805418e-04 +0.0000000000000000e+00 +9.9999978763031905e-01
-1.1599999999999975e+01 +8.1491872321949419e+00 +0.0000000000000000e+00 -1.1599999164520504e+01 +6.5738780634312297e-04 +0.0000000000000000e+00 +9.9999978392061251e-01
-1.1699999999999974e+01 +8.1491212100373414e+00 +0.0000000000000000e+00 -1.1699999142725742e+01 +6.6305534719809749e-04 +0.0000000000000000e+00 +9.9999978017877889e-01
