# field on trajectory
# s[mm] rx[mm] ry[mm] rz[mm] bx[T] by[T] bz[T]
0.0000000000000000e+00 +8.1530000000000094e+00 +0.0000000000000000e+00 +0.0000000000000000e+00 -3.1315889373679996e-02 -5.9311490898450847e-01 +6.0499052893712730e-03
1.0000000000000001e-01 +8.1529997163925092e+00 +0.0000000000000000e+00 +9.9999999999463796e-02 -3.1315647630172048e-02 -5.9311435367497256e-01 +6.0500690944963204e-03
2.0000000000000001e-01 +8.1529988655711296e+00 +0.0000000000000000e+00 +1.9999999999571000e-01 -3.1315387296048831e-02 -5.9311381773854388e-01 +6.0502288880737772e-03
2.9999999999999999e-01 +8.1529974475415692e+00 +0.0000000000000000e+00 +2.9999999998552201e-01 -3.1315111063463887e-02 -5.9311330018360386e-01 +6.0503845906828401e-03
4.0000000000000002e-01 +8.1529954622965306e+00 +0.0000000000000000e+00 +3.9999999996568197e-01 -3.1314821624581601e-02 -5.9311280001864064e-01 +6.0505361229035810e-03
5.0000000000000000e-01 +8.1529929098396696e+00 +0.0000000000000000e+00 +4.9999999993297300e-01 -3.1314521671566425e-02 -5.9311231625205330e-01 +6.0506834053149520e-03
5.9999999999999998e-01 +8.1529897901673394e+00 +0.0000000000000000e+00 +5.9999999988417696e-01 -3.1314213896589463e-02 -5.9311184789229965e-01 +6.0508263584964431e-03
6.9999999999999996e-01 +8.1529861032831796e+00 +0.0000000000000000e+00 +6.9999999981607697e-01 -3.1313900991821637e-02 -5.9311139394777668e-01 +6.0509649030268840e-03
8.0000000000000004e-01 +8.1529818491871993e+00 +0.0000000000000000e+00 +7.9999999972545699e-01 -3.1313585649437127e-02 -5.9311095342690845e-01 +6.0510989594854741e-03
9.0000000000000002e-01 +8.1529770278793894e+00 +0.0000000000000000e+00 +8.9999999960909804e-01 -3.1313270561611185e-02 -5.9311052533811626e-01 +6.0512284484515151e-03
1.0000000000000000e+00 +8.1529716393597500e+00 +0.0000000000000000e+00 +9.9999999946378304e-01 -3.1312958420519087e-02 -5.9311010868981673e-01 +6.0513532905045065e-03
1.1000000000000001e+00 +8.1529656836210105e+00 +0.0000000000000000e+00 +1.0999999992862901e+00 -3.1312651918338381e-02 -5.9310970249048112e-01 +6.0514734062248419e-03
1.2000000000000000e+00 +8.1529591606740706e+00 +0.0000000000000000e+00 +1.1999999990734200e+00 -3.1312353747237238e-02 -5.9310930574842669e-01 +6.0515887161916790e-03
1.3000000000000000e+00 +8.1529520705153100e+00 +0.0000000000000000e+00 +1.2999999988219300e+00 -3.1312066599387345e-02 -5.9310891747208194e-01 +6.0516991409858365e-03
1.3999999999999999e+00 +8.1529444131410909e+00 +0.0000000000000000e+00 +1.3999999985286200e+00 -3.1311793166956869e-02 -5.9310853666986951e-01 +6.0518046011886111e-03
1.5000000000000000e+00 +8.1529361885550298e+00 +0.0000000000000000e+00 +1.4999999981902701e+00 -3.1311536142106522e-02 -5.9310816235014296e-01 +6.0519050173812273e-03
1.6000000000000001e+00 +8.1529273967571498e+00 +0.0000000000000000e+00 +1.5999999978036501e+00 -3.1311298216993189e-02 -5.9310779352127629e-01 +6.0520003101458440e-03
1.7000000000000000e+00 +8.1529180377474404e+00 +0.0000000000000000e+00 +1.6999999973655600e+00 -3.1311082083767622e-02 -5.9310742919163428e-01 +6.0520904000653181e-03
1.8000000000000000e+00 +8.1529081115222706e+00 +0.0000000000000000e+00 +1.7999999968727800e+00 -3.1310890434574946e-02 -5.9310706836960037e-01 +6.0521752077235891e-03
1.8999999999999999e+00 +8.1528976180852606e+00 +0.0000000000000000e+00 +1.8999999963220899e+00 -3.1310725961549303e-02 -5.9310671006348636e-01 +6.0522546537048151e-03
2.0000000000000000e+00 +8.1528865574327902e+00 +0.0000000000000000e+00 +1.9999999957102601e+00 -3.1310591356818886e-02 -5.9310635328165140e-01 +6.0523286585946892e-03
2.1000000000000001e+00 +8.1528749295721408e+00 +0.0000000000000000e+00 +2.0999999950340902e+00 -3.1310488470567083e-02 -5.9310599721112867e-01 +6.0523971705324867e-03
2.2000000000000002e+00 +8.1528627344960096e+00 +0.0000000000000000e+00 +2.1999999942903599e+00 -3.1310415785255820e-02 -5.9310564175416691e-01 +6.0524602478733416e-03
2.2999999999999998e+00 +8.1528499722080596e+00 +0.0000000000000000e+00 +2.2999999934758399e+00 -3.1310370941416206e-02 -5.9310528699170195e-01 +6.0525179765242342e-03
2.3999999999999999e+00 +8.1528366427046404e+00 +0.0000000000000000e+00 +2.3999999925873299e+00 -3.1310351579589349e-02 -5.9310493300472977e-01 +6.0525704423917137e-03
2.5000000000000000e+00 +8.1528227459894005e+00 +0.0000000000000000e+00 +2.4999999916215998e+00 -3.1310355340321103e-02 -5.9310457987418863e-01 +6.0526177313804906e-03
2.6000000000000001e+00 +8.1528082820659602e+00 +0.0000000000000000e+00 +2.5999999905754398e+00 -3.1310379864166363e-02 -5.9310422768102000e-01 +6.0526599293939196e-03
2.7000000000000002e+00 +8.1527932509234198e+00 +0.0000000000000000e+00 +2.6999999894456299e+00 -3.1310422791696019e-02 -5.9310387650628760e-01 +6.0526971223350771e-03
2.7999999999999998e+00 +8.1527776525726896e+00 +0.0000000000000000e+00 +2.7999999882289601e+00 -3.1310481763482861e-02 -5.9310352643088149e-01 +6.0527293961034961e-03
2.8999999999999999e+00 +8.1527614870065008e+00 +0.0000000000000000e+00 +2.8999999869222002e+00 -3.1310554420119333e-02 -5.9310317753584485e-01 +6.0527568365984427e-03
3.0000000000000000e+00 +8.1527447542284808e+00 +0.0000000000000000e+00 +2.9999999855221300e+00 -3.1310638402206409e-02 -5.9310282990213936e-01 +6.0527795297162660e-03
3.1000000000000001e+00 +8.1527274542386294e+00 +0.0000000000000000e+00 +3.0999999840255499e+00 -3.1310731350360728e-02 -5.9310248361076245e-01 +6.0527975613515039e-03
3.2000000000000002e+00 +8.1527095870333106e+00 +0.0000000000000000e+00 +3.1999999824292300e+00 -3.1310830905215574e-02 -5.9310213874274875e-01 +6.0528110173967056e-03
3.2999999999999998e+00 +8.1526911526198091e+00 +0.0000000000000000e+00 +3.2999999807299600e+00 -3.1310934707415944e-02 -5.9310179537905350e-01 +6.0528199837410479e-03
3.3999999999999999e+00 +8.1526721509872004e+00 +0.0000000000000000e+00 +3.3999999789245101e+00 -3.1311040397631620e-02 -5.9310145360078936e-01 +6.0528245462726747e-03
3.5000000000000000e+00 +8.1526525821464002e+00 +0.0000000000000000e+00 +3.4999999770096801e+00 -3.1311145616541587e-02 -5.9310111348890193e-01 +6.0528247908751076e-03
3.6000000000000001e+00 +8.1526324460901396e+00 +0.0000000000000000e+00 +3.5999999749822500e+00 -3.1311248004851751e-02 -5.9310077512449522e-01 +6.0528208034305239e-03
3.7000000000000002e+00 +8.1526117428220495e+00 +0.0000000000000000e+00 +3.6999999728389801e+00 -3.1311345203283832e-02 -5.9310043858859773e-01 +6.0528126698171127e-03
3.7999999999999998e+00 +8.1525904723421299e+00 +0.0000000000000000e+00 +3.7999999705766800e+00 -3.1311434852582483e-02 -5.9310010396228019e-01 +6.0528004759101642e-03
3.8999999999999999e+00 +8.1525686346503807e+00 +0.0000000000000000e+00 +3.8999999681921298e+00 -3.1311514593514833e-02 -5.9309977132662695e-01 +6.0527843075816020e-03
4.0000000000000000e+00 +8.1525462297431694e+00 +0.0000000000000000e+00 +3.9999999656820902e+00 -3.1311582066872998e-02 -5.9309944076276644e-01 +6.0527642507001468e-03
4.0999999999999996e+00 +8.1525232576241304e+00 +0.0000000000000000e+00 +4.0999999630433699e+00 -3.1311635429401879e-02 -5.9309911238835733e-01 +6.0527403639819687e-03
4.2000000000000002e+00 +8.1524997182896204e+00 +0.0000000000000000e+00 +4.1999999602727298e+00 -3.1311674901585866e-02 -5.9309878646742464e-01 +6.0527125975484951e-03
4.2999999999999998e+00 +8.1524756117469206e+00 +0.0000000000000000e+00 +4.2999999573669703e+00 -3.1311701219817488e-02 -5.9309846330049287e-01 +6.0526808743725001e-03
4.4000000000000004e+00 +8.1524509379887604e+00 +0.0000000000000000e+00 +4.3999999543228601e+00 -3.1311715120469950e-02 -5.9309814318821730e-01 +6.0526451174291070e-03
4.5000000000000000e+00 +8.1524256970187707e+00 +0.0000000000000000e+00 +4.4999999511372000e+00 -3.1311717339884443e-02 -5.9309782643118103e-01 +6.0526052496937630e-03
4.5999999999999996e+00 +8.1523998888369498e+00 +0.0000000000000000e+00 +4.5999999478067499e+00 -3.1311708614374538e-02 -5.9309751333001048e-01 +6.0525611941436176e-03
4.7000000000000002e+00 +8.1523735134396702e+00 +0.0000000000000000e+00 +4.6999999443283098e+00 -3.1311689680224047e-02 -5.9309720418537915e-01 +6.0525128737576490e-03
4.7999999999999998e+00 +8.1523465708305594e+00 +0.0000000000000000e+00 +4.7999999406986600e+00 -3.1311661273680701e-02 -5.9309689929791698e-01 +6.0524602115158898e-03
4.9000000000000004e+00 +8.1523190610096208e+00 +0.0000000000000000e+00 +4.8999999369145701e+00 -3.1311624130958712e-02 -5.9309659896830114e-01 +6.0524031304004721e-03
5.0000000000000000e+00 +8.1522909839768491e+00 +0.0000000000000000e+00 +4.9999999329728402e+00 -3.1311578988235403e-02 -5.9309630349722653e-01 +6.0523415533954832e-03
5.0999999999999996e+00 +8.1522623397286207e+00 +0.0000000000000000e+00 +5.0999999288702398e+00 -3.1311526581650727e-02 -5.9309601318543625e-01 +6.0522754034873826e-03
5.2000000000000002e+00 +8.1522331282685592e+00 +0.0000000000000000e+00 +5.1999999246035600e+00 -3.1311467647300938e-02 -5.9309572833363400e-01 +6.0522046036642413e-03
5.2999999999999998e+00 +8.1522033495966806e+00 +0.0000000000000000e+00 +5.2999999201695802e+00 -3.1311402921241051e-02 -5.9309544924257196e-01 +6.0521290769167862e-03
5.4000000000000004e+00 +8.1521730037093203e+00 +0.0000000000000000e+00 +5.3999999155650800e+00 -3.1311333139483082e-02 -5.9309517621305263e-01 +6.0520487462385458e-03
5.5000000000000000e+00 +8.1521420906137791e+00 +0.0000000000000000e+00 +5.4999999107868396e+00 -3.1311259037987989e-02 -5.9309490954581146e-01 +6.0519635346247399e-03
5.5999999999999996e+00 +8.1521106102991308e+00 +0.0000000000000000e+00 +5.5999999058316599e+00 -3.1311181352675903e-02 -5.9309464954175306e-01 +6.0518733650749296e-03
5.7000000000000002e+00 +8.1520785627762997e+00 +0.0000000000000000e+00 +5.6999999006963096e+00 -3.1311100819407529e-02 -5.9309439650162687e-01 +6.0517781605896942e-03
5.7999999999999998e+00 +8.1520459480379905e+00 +0.0000000000000000e+00 +5.7999998953775700e+00 -3.1311018173998915e-02 -5.9309415072635319e-01 +6.0516778441742245e-03
5.9000000000000004e+00 +8.1520127660915005e+00 +0.0000000000000000e+00 +5.8999998898722197e+00 -3.1310934152205878e-02 -5.9309391251675769e-01 +6.0515723388356408e-03
5.9999999999999902e+00 +8.1519790169259103e+00 +0.0000000000000000e+00 +5.9999998841770603e+00 -3.1310849489735768e-02 -5.9309368217383873e-01 +6.0514615675859454e-03
6.0999999999999899e+00 +8.1519447005521197e+00 +0.0000000000000000e+00 +6.0999998782888598e+00 -3.1310764785377150e-02 -5.9309346003462693e-01 +6.0513454982449337e-03
6.1999999999999904e+00 +8.1519098169665103e+00 +0.0000000000000000e+00 +6.1999998722044003e+00 -3.1310680090484766e-02 -5.9309324658103091e-01 +6.0512242778610744e-03
6.2999999999999901e+00 +8.1518743661654298e+00 +0.0000000000000000e+00 +6.2999998659204701e+00 -3.1310595319579540e-02 -5.9309304233114757e-01 +6.0510980982884273e-03
6.3999999999999897e+00 +8.1518383481488907e+00 +0.0000000000000000e+00 +6.3999998594338496e+00 -3.1310510387208085e-02 -5.9309284780304361e-01 +6.0509671513793457e-03
6.4999999999999902e+00 +8.1518017629241495e+00 +0.0000000000000000e+00 +6.4999998527413201e+00 -3.1310425207942930e-02 -5.9309266351472667e-01 +6.0508316289841066e-03
6.5999999999999899e+00 +8.1517646104839496e+00 +0.0000000000000000e+00 +6.5999998458396698e+00 -3.1310339696393186e-02 -5.9309248998432118e-01 +6.0506917229527059e-03
6.6999999999999904e+00 +8.1517268908319203e+00 +0.0000000000000000e+00 +6.6999998387256703e+00 -3.1310253767195442e-02 -5.9309232772986231e-01 +6.0505476251326165e-03
6.7999999999999901e+00 +8.1516886039680703e+00 +0.0000000000000000e+00 +6.7999998313961196e+00 -3.1310167335021524e-02 -5.9309217726941232e-01 +6.0503995273699668e-03
6.8999999999999897e+00 +8.1516497498923908e+00 +0.0000000000000000e+00 +6.8999998238477902e+00 -3.1310080314578485e-02 -5.9309203912103237e-01 +6.0502476215091748e-03
6.9999999999999902e+00 +8.1516103286012402e+00 +0.0000000000000000e+00 +6.9999998160774597e+00 -3.1309992620611751e-02 -5.9309191380280935e-01 +6.0500920993931838e-03
7.0999999999999899e+00 +8.1515703400982602e+00 +0.0000000000000000e+00 +7.0999998080819298e+00 -3.1309904167902164e-02 -5.9309180183276911e-01 +6.0499331528624583e-03
7.1999999999999904e+00 +8.1515297843834595e+00 +0.0000000000000000e+00 +7.1999997998579603e+00 -3.1309814871272088e-02 -5.9309170372896336e-01 +6.0497709737558697e-03
7.2999999999999901e+00 +8.1514886614531896e+00 +0.0000000000000000e+00 +7.2999997914023496e+00 -3.1309724645587081e-02 -5.9309162000946958e-01 +6.0496057539106253e-03
7.3999999999999897e+00 +8.1514469713147300e+00 +0.0000000000000000e+00 +7.3999997827118804e+00 -3.1309633405751269e-02 -5.9309155119227275e-01 +6.0494376851609501e-03
7.4999999999999902e+00 +8.1514047139571595e+00 +0.0000000000000000e+00 +7.4999997737833199e+00 -3.1309541066721250e-02 -5.9309149779550085e-01 +6.0492669593405187e-03
7.5999999999999899e+00 +8.1513618893914099e+00 +0.0000000000000000e+00 +7.5999997646134698e+00 -3.1309447543490854e-02 -5.9309146033709947e-01 +6.0490937682789693e-03
7.6999999999999904e+00 +8.1513184976138309e+00 +0.0000000000000000e+00 +7.6999997551991104e+00 -3.1309352751107987e-02 -5.9309143933512698e-01 +6.0489183038049460e-03
7.7999999999999901e+00 +8.1512745386207808e+00 +0.0000000000000000e+00 +7.7999997455370096e+00 -3.1309256604670141e-02 -5.9309143530763686e-01 +6.0487407577447952e-03
7.8999999999999897e+00 +8.1512300124159101e+00 +0.0000000000000000e+00 +7.8999997356239602e+00 -3.1309159019322894e-02 -5.9309144877261599e-01 +6.0485613219218677e-03
7.9999999999999902e+00 +8.1511849189955701e+00 +0.0000000000000000e+00 +7.9999997254567399e+00 -3.1309059910267625e-02 -5.9309148024810465e-01 +6.0483801881577037e-03
8.0999999999999908e+00 +8.1511392583670403e+00 +0.0000000000000000e+00 +8.0999997150321406e+00 -3.1308959270998624e-02 -5.9309152997027548e-01 +6.0481975002186763e-03
8.1999999999999904e+00 +8.1510930305230396e+00 +0.0000000000000000e+00 +8.1999997043469399e+00 -3.1308857408026754e-02 -5.9309159704831127e-01 +6.0480132096619966e-03
8.2999999999999901e+00 +8.1510462354672200e+00 +0.0000000000000000e+00 +8.2999996933979094e+00 -3.1308754706103496e-02 -5.9309168030949988e-01 +6.0478272199907725e-03
8.3999999999999897e+00 +8.1509988731995708e+00 +0.0000000000000000e+00 +8.3999996821818605e+00 -3.1308651549977556e-02 -5.9309177858112816e-01 +6.0476394347079767e-03
8.4999999999999893e+00 +8.1509509437164507e+00 +0.0000000000000000e+00 +8.4999996706955496e+00 -3.1308548324394413e-02 -5.9309189069048018e-01 +6.0474497573164403e-03
8.5999999999999908e+00 +8.1509024470215099e+00 +0.0000000000000000e+00 +8.5999996589357703e+00 -3.1308445414091571e-02 -5.9309201546474677e-01 +6.0472580913179296e-03
8.6999999999999904e+00 +8.1508533831147396e+00 +0.0000000000000000e+00 +8.6999996468993004e+00 -3.1308343203802796e-02 -5.9309215173111363e-01 +6.0470643402140718e-03
8.7999999999999794e+00 +8.1508037519961398e+00 +0.0000000000000000e+00 +8.7999996345829192e+00 -3.1308242078256318e-02 -5.9309229831673049e-01 +6.0468684075060553e-03
8.8999999999999808e+00 +8.1507535536620708e+00 +0.0000000000000000e+00 +8.8999996219834205e+00 -3.1308142422176138e-02 -5.9309245404874034e-01 +6.0466701966949369e-03
8.9999999999999805e+00 +8.1507027881161793e+00 +0.0000000000000000e+00 +8.9999996090975891e+00 -3.1308044620277066e-02 -5.9309261775418831e-01 +6.0464696112807088e-03
9.0999999999999801e+00 +8.1506514553584601e+00 +0.0000000000000000e+00 +9.0999995959221902e+00 -3.1307949057269066e-02 -5.9309278826011069e-01 +6.0462665547632438e-03
9.1999999999999797e+00 +8.1505995553889097e+00 +0.0000000000000000e+00 +9.1999995824540193e+00 -3.1307856117855512e-02 -5.9309296439350312e-01 +6.0460609306419773e-03
9.2999999999999794e+00 +8.1505470882038900e+00 +0.0000000000000000e+00 +9.2999995686898593e+00 -3.1307766186734289e-02 -5.9309314498134991e-01 +6.0458526424162235e-03
9.3999999999999808e+00 +8.1504940538070496e+00 +0.0000000000000000e+00 +9.3999995546264898e+00 -3.1307679648593073e-02 -5.9309332885053401e-01 +6.0456415935842443e-03
9.4999999999999805e+00 +8.1504404521983798e+00 +0.0000000000000000e+00 +9.4999995402606903e+00 -3.1307596888113479e-02 -5.9309351482792350e-01 +6.0454276876441846e-03
9.5999999999999801e+00 +8.1503862833778804e+00 +0.0000000000000000e+00 +9.5999995255892507e+00 -3.1307518289969451e-02 -5.9309370174034381e-01 +6.0452108280937720e-03
9.6999999999999797e+00 +8.1503315473419207e+00 +0.0000000000000000e+00 +9.6999995106089507e+00 -3.1307444238828287e-02 -5.9309388841460264e-01 +6.0449909184306112e-03
9.7999999999999794e+00 +8.1502762440941297e+00 +0.0000000000000000e+00 +9.7999994953165697e+00 -3.1307375119345920e-02 -5.9309407367740308e-01 +6.0447678621512778e-03
9.8999999999999808e+00 +8.1502203736345091e+00 +0.0000000000000000e+00 +9.8999994797088906e+00 -3.1307311316171191e-02 -5.9309425635543001e-01 +6.0445415627522377e-03
9.9999999999999805e+00 +8.1501639359594300e+00 +0.0000000000000000e+00 +9.9999994637827001e+00 -3.1307253213945480e-02 -5.9309443527534789e-01 +6.0443119237298471e-03
1.0100000000000000e+01 +8.1501069310761505e+00 +0.0000000000000000e+00 +1.0099999447534801e+01 -3.1307201092276547e-02 -5.9309460952257753e-01 +6.0440789178517621e-03
1.0199999999999999e+01 +8.1500493589774106e+00 +0.0000000000000000e+00 +1.0199999430961901e+01 -3.1307154810690366e-02 -5.9309477921820930e-01 +6.0438427949827895e-03
1.0300000000000001e+01 +8.1499912196668394e+00 +0.0000000000000000e+00 +1.0299999414060901e+01 -3.1307114123697639e-02 -5.9309494474212854e-01 +6.0436038742649936e-03
1.0400000000000000e+01 +8.1499325131444493e+00 +0.0000000000000000e+00 +1.0399999396828500e+01 -3.1307078785825504e-02 -5.9309510647423458e-01 +6.0433624748444945e-03
1.0500000000000000e+01 +8.1498732394065900e+00 +0.0000000000000000e+00 +1.0499999379261400e+01 -3.1307048551617811e-02 -5.9309526479444064e-01 +6.0431189158715792e-03
1.0600000000000000e+01 +8.1498133984568994e+00 +0.0000000000000000e+00 +1.0599999361356600e+01 -3.1307023175630944e-02 -5.9309542008258542e-01 +6.0428735164998566e-03
1.0699999999999999e+01 +8.1497529902953794e+00 +0.0000000000000000e+00 +1.0699999343110701e+01 -3.1307002412438611e-02 -5.9309557271852087e-01 +6.0426265958872950e-03
1.0800000000000001e+01 +8.1496920149220404e+00 +0.0000000000000000e+00 +1.0799999324520600e+01 -3.1306986016630726e-02 -5.9309572308208269e-01 +6.0423784731959999e-03
1.0900000000000000e+01 +8.1496304723332305e+00 +0.0000000000000000e+00 +1.0899999305583000e+01 -3.1306973742815221e-02 -5.9309587155312016e-01 +6.0421294675926350e-03
1.1000000000000000e+01 +8.1495683625325892e+00 +0.0000000000000000e+00 +1.0999999286294800e+01 -3.1306965345613814e-02 -5.9309601851140636e-01 +6.0418798982475813e-03
1.1100000000000000e+01 +8.1495056855201309e+00 +0.0000000000000000e+00 +1.1099999266652601e+01 -3.1306960579666913e-02 -5.9309616433672752e-01 +6.0416300843359637e-03
1.1199999999999999e+01 +8.1494424412958306e+00 +0.0000000000000000e+00 +1.1199999246653300e+01 -3.1306959199632368e-02 -5.9309630940885261e-01 +6.0413803450374386e-03
1.1300000000000001e+01 +8.1493786298560700e+00 +0.0000000000000000e+00 +1.1299999226293700e+01 -3.1306960960187410e-02 -5.9309645410756362e-01 +6.0411309995366119e-03
1.1400000000000000e+01 +8.1493142512044905e+00 +0.0000000000000000e+00 +1.1399999205570500e+01 -3.1306965616024252e-02 -5.9309659881256482e-01 +6.0408823670221818e-03
1.1500000000000000e+01 +8.1492493053447106e+00 +0.0000000000000000e+00 +1.1499999184480499e+01 -3.1306972921853679e-02 -5.9309674390354417e-01 +6.0406347666876825e-03
1.1600000000000000e+01 +8.1491837922658306e+00 +0.0000000000000000e+00 +1.1599999163020600e+01 -3.1306982632411252e-02 -5.9309688976028985e-01 +6.0403885177328009e-03
1.1699999999999999e+01 +8.1491177119787608e+00 +0.0000000000000000e+00 +1.1699999141187400e+01 -3.1306994502442585e-02 -5.9309703676239445e-01 +6.0401439393603885e-03
1.1800000000000001e+01 +8.1490510644762306e+00 +0.0000000000000000e+00 +1.1799999118977800e+01 -3.1307008286720270e-02 -5.9309718528957978e-01 +6.0399013507799505e-03
