# multipoles
# s[mm] polynom_b[n=0][T/m^n] polynom_b[n=1][T/m^n] polynom_b[n=2][T/m^n] polynom_b[n=3][T/m^n] polynom_b[n=4][T/m^n] polynom_b[n=5][T/m^n] polynom_b[n=6][T/m^n] 
-0.0000000000000000e+00 -5.6522940036776514e-01 +7.7419767341710299e+00 -7.9789073271865962e-01 -7.1726676800900847e+01 +8.3779262402496970e+03 +1.2432823855821705e+05 -4.5350818243271179e+07 
-1.0000000000000001e-01 -5.6522950428946839e-01 +7.7419877977122313e+00 -8.0159082642549417e-01 -7.1632525332533788e+01 +8.4598469696555785e+03 +1.2374054636480923e+05 -4.5709660321004234e+07 
-2.0000000000000001e-01 -5.6522961766258994e-01 +7.7419922995610735e+00 -8.0405034073743753e-01 -7.1377637230425876e+01 +8.5239363609602751e+03 +1.2237272154231074e+05 -4.6006234374005899e+07 
-2.9999999999999999e-01 -5.6522973968580448e-01 +7.7419907455916164e+00 -8.0534756679331432e-01 -7.0975914914513851e+01 +8.5710116537133126e+03 +1.2029238827841583e+05 -4.6242552545252137e+07 
-4.0000000000000002e-01 -5.6522986955783161e-01 +7.7419836416730714e+00 -8.0556080088932880e-01 -7.0441260654791535e+01 +8.6018901703546890e+03 +1.1756716998426270e+05 -4.6420627331073985e+07 
-5.0000000000000000e-01 -5.6523000647732069e-01 +7.7419714936688750e+00 -8.0476833805471615e-01 -6.9787576553809842e+01 +8.6173892088542871e+03 +1.1426468919828611e+05 -4.6542471107507497e+07 
-5.9999999999999998e-01 -5.6523014964294882e-01 +7.7419548074376019e+00 -8.0304847573120841e-01 -6.9028764545157813e+01 +8.6183261027880981e+03 +1.1045256749012950e+05 -4.6610096391900018e+07 
-6.9999999999999996e-01 -5.6523029825332716e-01 +7.7419340888318615e+00 -8.0047951213595914e-01 -6.8178726373616641e+01 +8.6055181969312343e+03 +1.0619842535767528e+05 -4.6625515744391993e+07 
-8.0000000000000004e-01 -5.6523045150708262e-01 +7.7419098437028353e+00 -7.9713974675188515e-01 -6.7251363724682008e+01 +8.5797828580598689e+03 +1.0156988296971061e+05 -4.6590741824221611e+07 
-9.0000000000000002e-01 -5.6523060860283814e-01 +7.7418825779032971e+00 -7.9310747924123293e-01 -6.6260578283139324e+01 +8.5419374565464404e+03 +9.6634560391659557e+04 -4.6507787308963418e+07 
-1.0000000000000000e+00 -5.6523076873922029e-01 +7.7418527972763851e+00 -7.8846100834189792e-01 -6.5220271416030982e+01 +8.4927993440149348e+03 +9.1460075772675118e+04 -4.6378664784507640e+07 
-1.1000000000000001e+00 -5.6523093111490263e-01 +7.7418210076806409e+00 -7.8327863399800535e-01 -6.4144344907336020e+01 +8.4331858990628571e+03 +8.6114049617065830e+04 -4.6205386977038331e+07 
-1.2000000000000000e+00 -5.6523109492843993e-01 +7.7417877149563070e+00 -7.7763865299312074e-01 -6.3046699946937188e+01 +8.3639144444226167e+03 +8.0664098792183853e+04 -4.5989966362052418e+07 
-1.3000000000000000e+00 -5.6523125937851515e-01 +7.7417534249609226e+00 -7.7161936086550509e-01 -6.1941238179047261e+01 +8.2858022872525544e+03 +7.5177842664324911e+04 -4.5734415361982532e+07 
-1.3999999999999999e+00 -5.6523142366379353e-01 +7.7417186435521339e+00 -7.6529905451526770e-01 -6.0841861181322010e+01 +8.1996667650437212e+03 +6.9722899981311130e+04 -4.5440746561381534e+07 
-1.5000000000000000e+00 -5.6523158698293385e-01 +7.7416838765854630e+00 -7.5875602526875152e-01 -5.9762470413288554e+01 +8.1063251220074026e+03 +6.4366888607693036e+04 -4.5110972137568280e+07 
-1.6000000000000001e+00 -5.6523174853462244e-01 +7.7416496299305644e+00 -7.5206856462816507e-01 -5.8716967652891967e+01 +8.0065946163969256e+03 +5.9177427937478176e+04 -4.4747104367563911e+07 
-1.7000000000000000e+00 -5.6523190751757757e-01 +7.7416164094589783e+00 -7.4531496023137755e-01 -5.7719254681267330e+01 +7.9012924440486368e+03 +5.4222137167392786e+04 -4.4351155264589295e+07 
-1.8000000000000000e+00 -5.6523206313057250e-01 +7.7415847210479916e+00 -7.3857349695667940e-01 -5.6783233338457393e+01 +7.7912357669601715e+03 +4.9568635447534005e+04 -4.3925136737794913e+07 
-1.8999999999999999e+00 -5.6523221457237982e-01 +7.7415550705884755e+00 -7.3192245318035176e-01 -5.5922805782721220e+01 +7.6772416394836737e+03 +4.5284543455173778e+04 -4.3471060231707357e+07 
-2.0000000000000000e+00 -5.6523236104182217e-01 +7.7415279639730432e+00 -7.2544010828996142e-01 -5.5151874116419044e+01 +7.5601271514746149e+03 +4.1437481136351256e+04 -4.2990937408867583e+07 
-2.1000000000000001e+00 -5.6523250208250730e-01 +7.7415038078060157e+00 -7.1919376279846658e-01 -5.4481279819135722e+01 +7.4407109434660188e+03 +3.8080445961860845e+04 -4.2487189028284147e+07 
-2.2000000000000002e+00 -5.6523263861291995e-01 +7.7414826175616138e+00 -7.1320612322007737e-01 -5.3909856509776453e+01 +7.3197899219196270e+03 +3.5209240428931080e+04 -4.1963741050840333e+07 
-2.2999999999999998e+00 -5.6523277189402299e-01 +7.7414643124269826e+00 -7.0748857724214209e-01 -5.3433493942957440e+01 +7.1981486816992210e+03 +3.2805692671589473e+04 -4.1424863662245438e+07 
-2.3999999999999999e+00 -5.6523290318685693e-01 +7.7414488115901809e+00 -7.0205251033645288e-01 -5.3048081945907143e+01 +7.0765717756818622e+03 +3.0851631287340584e+04 -4.0874826849686265e+07 
-2.5000000000000000e+00 -5.6523303375239065e-01 +7.7414360342436952e+00 -6.9690930964716991e-01 -5.2749510534806419e+01 +6.9558437865816923e+03 +2.9328886035845022e+04 -4.0317900740767643e+07 
-2.6000000000000001e+00 -5.6523316485161446e-01 +7.7414258995751357e+00 -6.9207036074219430e-01 -5.2533669651342898e+01 +6.8367492718409612e+03 +2.8219286330054991e+04 -3.9758355357177533e+07 
-2.7000000000000002e+00 -5.6523329774566444e-01 +7.7414183267859622e+00 -6.8754704429042990e-01 -5.2396449720021423e+01 +6.7200726881279988e+03 +2.7504664496300098e+04 -3.9200460223040603e+07 
-2.7999999999999998e+00 -5.6523343369545742e-01 +7.7414132350627449e+00 -6.8335074871273593e-01 -5.2333740828167151e+01 +6.6065986435437699e+03 +2.7166851053379574e+04 -3.8648485595220163e+07 
-2.8999999999999999e+00 -5.6523357396210061e-01 +7.7414105436073273e+00 -6.7949285531150705e-01 -5.2341433615943686e+01 +6.4971116024070616e+03 +2.7187679910354225e+04 -3.8106701027670100e+07 
-3.0000000000000000e+00 -5.6523371980660397e-01 +7.7414101716164412e+00 -6.7598474852565582e-01 -5.2415418677619222e+01 +6.3923960910482701e+03 +2.7548984867765143e+04 -3.7579376376284286e+07 
-3.1000000000000001e+00 -5.6523387249000789e-01 +7.7414120382871738e+00 -6.7283781186265290e-01 -5.2551586749751522e+01 +6.2932366076443732e+03 +2.8232600780959223e+04 -3.7070781337222427e+07 
-3.2000000000000002e+00 -5.6523403327340527e-01 +7.7414160628184927e+00 -6.7006342701981558e-01 -5.2745828756972898e+01 +6.2004176175196271e+03 +2.9220363828433372e+04 -3.6585185456768967e+07 
-3.2999999999999998e+00 -5.6523420341777764e-01 +7.7414221644124446e+00 -6.6767297892625621e-01 -5.2994035868113258e+01 +6.1147236383193804e+03 +3.0494111890596356e+04 -3.6126858507577144e+07 
-3.3999999999999999e+00 -5.6523438418427063e-01 +7.7414302622666398e+00 -6.6567785003645730e-01 -5.3292099269294702e+01 +6.0369391342662775e+03 +3.2035683198053139e+04 -3.5700069992833525e+07 
-3.5000000000000000e+00 -5.6523457683385114e-01 +7.7414402755852949e+00 -6.6408942471528054e-01 -5.3635910514245509e+01 +5.9678486004925535e+03 +3.3826918445557130e+04 -3.5309089549896687e+07 
-3.6000000000000001e+00 -5.6523478262764826e-01 +7.7414521235679299e+00 -6.6291908505311614e-01 -5.4021361206942601e+01 +5.9082364807112581e+03 +3.5849658978719148e+04 -3.4958186550676838e+07 
-3.7000000000000002e+00 -5.6523500282667449e-01 +7.7414657254165702e+00 -6.6217821734847160e-01 -5.4444343202869433e+01 +5.8588872892422733e+03 +3.8085747921202390e+04 -3.4651630680688225e+07 
-3.7999999999999998e+00 -5.6523523869200332e-01 +7.7414810003325565e+00 -6.6187820469599379e-01 -5.4900748547371613e+01 +5.8205854721526975e+03 +4.0517029904407871e+04 -3.4393691281415343e+07 
-3.8999999999999999e+00 -5.6523549148468610e-01 +7.7414978675166610e+00 -6.6203043311571752e-01 -5.5386469481193970e+01 +5.7941155196878872e+03 +4.3125351100550652e+04 -3.4188637876277231e+07 
-4.0000000000000000e+00 -5.6523576246581431e-01 +7.7415162461703311e+00 -6.6264628794413072e-01 -5.5897398483965311e+01 +5.7802619008427801e+03 +4.5892559461682853e+04 -3.4040739869467914e+07 
-4.0999999999999996e+00 -5.6523605238328345e-01 +7.7415360304369587e+00 -6.6373083523789600e-01 -5.6429285039803496e+01 +5.7795285014011970e+03 +4.8798464234722655e+04 -3.3952898559614792e+07 
-4.2000000000000002e+00 -5.6523635992745325e-01 +7.7415569904013690e+00 -6.6526381245995547e-01 -5.6976879506610736e+01 +5.7913060000553114e+03 +5.1813422613862458e+04 -3.3922554774745040e+07 
-4.2999999999999998e+00 -5.6523668327301935e-01 +7.7415788591695573e+00 -6.6721855921288098e-01 -5.7534576126569782e+01 +5.8147080604940720e+03 +5.4905095060370448e+04 -3.3945783569409385e+07 
-4.4000000000000004e+00 -5.6523702059471215e-01 +7.7416013698507982e+00 -6.6956842476006750e-01 -5.8096769149782993e+01 +5.8488485305321556e+03 +5.8041142085699415e+04 -3.4018660866702698e+07 
-4.5000000000000000e+00 -5.6523737006720043e-01 +7.7416242555514216e+00 -6.7228675462784970e-01 -5.8657852616591114e+01 +5.8928411817747083e+03 +6.1189222902256479e+04 -3.4137262203754172e+07 
-4.5999999999999996e+00 -5.6523772986510268e-01 +7.7416472493709403e+00 -6.7534690302793832e-01 -5.9212220256897062e+01 +5.9457999438147763e+03 +6.4316994898715813e+04 -3.4297663841274478e+07 
-4.7000000000000002e+00 -5.6523809816304760e-01 +7.7416700844183994e+00 -6.7872222563781648e-01 -5.9754265931109806e+01 +6.0068387707387428e+03 +6.7392116125518689e+04 -3.4495942137412690e+07 
-4.7999999999999998e+00 -5.6523847313553977e-01 +7.7416924937882197e+00 -6.8238608546029289e-01 -6.0278382947703292e+01 +6.0750717490565794e+03 +7.0382241397700389e+04 -3.4728174051539786e+07 
-4.9000000000000004e+00 -5.6523885295711807e-01 +7.7417142105853811e+00 -6.8631184412478241e-01 -6.0778964764931459e+01 +6.1496129367940457e+03 +7.3255026314868082e+04 -3.4990436389228560e+07 
-5.0000000000000000e+00 -5.6523923580222812e-01 +7.7417349678992968e+00 -6.9047287340704022e-01 -6.1250404225919816e+01 +6.2295765758857888e+03 +7.5978122815312308e+04 -3.5278806795859694e+07 
-5.0999999999999996e+00 -5.6523961984532256e-01 +7.7417544988307530e+00 -6.9484254654300015e-01 -6.1687094335656013e+01 +6.3140769302459885e+03 +7.8519183699462446e+04 -3.5589362992863819e+07 
-5.2000000000000002e+00 -5.6524000326074608e-01 +7.7417725364677699e+00 -6.9939424234561631e-01 -6.2083427551202696e+01 +6.4022283654521070e+03 +8.0845858502121453e+04 -3.5918183161136761e+07 
-5.2999999999999998e+00 -5.6524038422280165e-01 +7.7417888139015965e+00 -7.0410134709608163e-01 -6.2433796218719664e+01 +6.4931453822446674e+03 +8.2925795963169294e+04 -3.6261346091751352e+07 
-5.4000000000000004e+00 -5.6524076090580588e-01 +7.7418030642177387e+00 -7.0893724728345608e-01 -6.2732592340067526e+01 +6.5859424783664026e+03 +8.4726642783176227e+04 -3.6614930530724637e+07 
-5.5000000000000000e+00 -5.6524113148389188e-01 +7.7418150205007930e+00 -7.1387534038408884e-01 -6.2974207665130209e+01 +6.6797343519074520e+03 +8.6216044033827377e+04 -3.6975016137525991e+07 
-5.5999999999999996e+00 -5.6524149413129510e-01 +7.7418244158324718e+00 -7.1888902741353022e-01 -6.3153033646664092e+01 +6.7736357627402867e+03 +8.7361642955929579e+04 -3.7337682836347595e+07 
-5.7000000000000002e+00 -5.6524184702204172e-01 +7.7418309832883994e+00 -7.2395171291325267e-01 -6.3263461331111927e+01 +6.8667615312393236e+03 +8.8131080295676627e+04 -3.7699010806266122e+07 
-5.7999999999999998e+00 -5.6524218833019557e-01 +7.7418344559439127e+00 -7.2903681306344181e-01 -6.3299881520328320e+01 +6.9582266915235286e+03 +8.8491995250709006e+04 -3.8055081205130614e+07 
-5.9000000000000004e+00 -5.6524251622967703e-01 +7.7418345668673698e+00 -7.3411774572498989e-01 -6.3256684562536130e+01 +7.0471462994424155e+03 +8.8412024225216650e+04 -3.8401975250582315e+07 
-5.9999999999999902e+00 -5.6524282889446531e-01 +7.7418310491309184e+00 -7.3916793767119349e-01 -6.3128260677939565e+01 +7.1326355740517465e+03 +8.7858802851712346e+04 -3.8735774895478062e+07 
-6.0999999999999899e+00 -5.6524312496312512e-01 +7.7418237289113669e+00 -7.4416454422956335e-01 -6.2911019074148470e+01 +7.2139705471422640e+03 +8.6811527658189429e+04 -3.9053227903900787e+07 
-6.1999999999999904e+00 -5.6524340495276104e-01 +7.7418128314097077e+00 -7.4910083331902955e-01 -6.2609743438285392e+01 +7.2910990227983684e+03 +8.5295692141057632e+04 -3.9353943162841417e+07 
-6.2999999999999901e+00 -5.6524366985477259e-01 +7.7417986883915733e+00 -7.5397449208499201e-01 -6.2231389502827298e+01 +7.3641451306656900e+03 +8.3348415611305274e+04 -3.9638297026509330e+07 
-6.3999999999999897e+00 -5.6524392066057827e-01 +7.7417816316284638e+00 -7.5878320287958068e-01 -6.1782913206007599e+01 +7.4332329109912162e+03 +8.1006818452846535e+04 -3.9906665430457540e+07 
-6.4999999999999902e+00 -5.6524415836160335e-01 +7.7417619928854524e+00 -7.6352464235057693e-01 -6.1271270334461690e+01 +7.4984863112367339e+03 +7.8308020020926604e+04 -4.0159423917153329e+07 
-6.5999999999999899e+00 -5.6524438394943544e-01 +7.7417401039279117e+00 -7.6819648235285065e-01 -6.0703416746002723e+01 +7.5600291938901537e+03 +7.5289140009559356e+04 -4.0396947644880094e+07 
-6.6999999999999904e+00 -5.6524459841562746e-01 +7.7417162965208348e+00 -7.7279639078839424e-01 -6.0086308344816921e+01 +7.6179853607567975e+03 +7.1987298262844648e+04 -4.0619611528108306e+07 
-6.7999999999999901e+00 -5.6524480275180722e-01 +7.7416909024300953e+00 -7.7732203083560769e-01 -5.9426901105837572e+01 +7.6724785300173025e+03 +6.8439614883172646e+04 -4.0827790106013209e+07 
-6.8999999999999897e+00 -5.6524499794970062e-01 +7.7416642534141156e+00 -7.8177105637091382e-01 -5.8732150860958214e+01 +7.7236322602769096e+03 +6.4683209044408199e+04 -4.1021857209516443e+07 
-6.9999999999999902e+00 -5.6524518500107790e-01 +7.7416366812344810e+00 -7.8614112074532350e-01 -5.8009013592469557e+01 +7.7715701096331522e+03 +6.0755200646230842e+04 -4.1202186700368270e+07 
-7.0999999999999899e+00 -5.6524536489776278e-01 +7.7416085176517759e+00 -7.9042986580570129e-01 -5.7264445326449788e+01 +7.8164154300069085e+03 +5.6692709719005325e+04 -4.1369151498935714e+07 
-7.1999999999999904e+00 -5.6524553863164595e-01 +7.7415800944235480e+00 -7.9463493075511460e-01 -5.6505402074775233e+01 +7.8582915362177446e+03 +5.2532856079776808e+04 -4.1523124391982116e+07 
-7.2999999999999901e+00 -5.6524570719472222e-01 +7.7415517433042433e+00 -7.9875394804813504e-01 -5.5738839825671718e+01 +7.8973216305167216e+03 +4.8312759235198180e+04 -4.1664477679015569e+07 
-7.3999999999999897e+00 -5.6524587157898354e-01 +7.7415237960506920e+00 -8.0278454158171575e-01 -5.4971714726444908e+01 +7.9336287635215122e+03 +4.4069539499566643e+04 -4.1793582977293134e+07 
-7.4999999999999902e+00 -5.6524603277662611e-01 +7.7414965844137091e+00 -8.0672433036259583e-01 -5.4210982821948434e+01 +7.9673359100550042e+03 +3.9840316412294793e+04 -4.1910811596542060e+07 
-7.5999999999999899e+00 -5.6524619177977331e-01 +7.7414704401465428e+00 -8.1057092379088758e-01 -5.3463600321655413e+01 +7.9985658765855878e+03 +3.5662210337110817e+04 -4.2016534092442401e+07 
-7.6999999999999904e+00 -5.6524634958072195e-01 +7.7414456949971706e+00 -8.1432192602815989e-01 -5.2736523372308326e+01 +8.0274413844065421e+03 +3.1572341111881578e+04 -4.2111120662882328e+07 
-7.7999999999999901e+00 -5.6524650717187830e-01 +7.7414226807163162e+00 -8.1797493085332407e-01 -5.2036708280067607e+01 +8.0540849767248510e+03 +2.7607829300479716e+04 -4.2194940718868829e+07 
-7.8999999999999897e+00 -5.6524666554565561e-01 +7.7414017290478885e+00 -8.2152752610064983e-01 -5.1371111269198728e+01 +8.0786190963186009e+03 +2.3805794881810190e+04 -4.2268363238596231e+07 
-7.9999999999999902e+00 -5.6524682569462126e-01 +7.7413831717391046e+00 -8.2497729082360294e-01 -5.0746688744220585e+01 +8.1011660376669433e+03 +2.0203358550049499e+04 -4.2331756561236791e+07 
-8.0999999999999908e+00 -5.6524698867387246e-01 +7.7413672770062423e+00 -8.2832117234218872e-01 -5.0169319292626433e+01 +8.1218452343679619e+03 +1.6832564097325554e+04 -4.2385585665543847e+07 
-8.1999999999999904e+00 -5.6524715578047513e-01 +7.7413540634426177e+00 -8.3155137023798131e-01 -4.9640688756755928e+01 +8.1407311623821824e+03 +1.3706551974611686e+04 -4.2430555777551457e+07 
-8.2999999999999901e+00 -5.6524732836976821e-01 +7.7413434881895169e+00 -8.3465835181358972e-01 -4.9161463933086509e+01 +8.1578790031118724e+03 +1.0834085469347630e+04 -4.2467399965658158e+07 
-8.3999999999999897e+00 -5.6524750779713151e-01 +7.7413355083878859e+00 -8.3763258095526405e-01 -4.8732311754588956e+01 +8.1733438623428965e+03 +8.2239292164771414e+03 -4.2496850938185394e+07 
-8.4999999999999893e+00 -5.6524769541798503e-01 +7.7413300811671792e+00 -8.4046451895876595e-01 -4.8353898949508974e+01 +8.1871807940666858e+03 +5.8848471216898661e+03 -4.2519641177927993e+07 
-8.5999999999999908e+00 -5.6524789258770269e-01 +7.7413271636545327e+00 -8.4314462417473357e-01 -4.8026892316403533e+01 +8.1994447851406512e+03 +3.8256039883036387e+03 -4.2536502842675835e+07 
-8.6999999999999904e+00 -5.6524810066170550e-01 +7.7413267129680978e+00 -8.4566335146402749e-01 -4.7751958532587061e+01 +8.2101907503283292e+03 +2.0549644177145474e+03 -4.2548167758866616e+07 
-8.7999999999999794e+00 -5.6524832099542255e-01 +7.7413286862232944e+00 -8.4801115249290404e-01 -4.7529764342568342e+01 +8.2194735326342252e+03 +5.8169391969229241e+02 -4.2555367410394549e+07 
-8.8999999999999808e+00 -5.6524855494432802e-01 +7.7413330405260821e+00 -8.5017847516179623e-01 -4.7360976356437078e+01 +8.2273478946392861e+03 -5.8544225828835090e+02 -4.2558832903332867e+07 
-8.9999999999999805e+00 -5.6524880386382825e-01 +7.7413397329758817e+00 -8.5215576765747791e-01 -4.7246261150483669e+01 +8.2338685975358949e+03 -1.4376785182445872e+03 -4.2559295346589930e+07 
-9.0999999999999801e+00 -5.6524906910941108e-01 +7.7413487206644627e+00 -8.5393346920767554e-01 -4.7186285235270383e+01 +8.2390902206673527e+03 -1.9662490758062420e+03 -4.2557484984208271e+07 
-9.1999999999999797e+00 -5.6524935203654847e-01 +7.7413599606796817e+00 -8.5550201959640415e-01 -4.7181715161026531e+01 +8.2430673476380343e+03 -2.1623873623940426e+03 -4.2554132094524115e+07 
-9.2999999999999794e+00 -5.6524965400074900e-01 +7.7413734100998131e+00 -8.5685185526045005e-01 -4.7233217365613463e+01 +8.2458544828705380e+03 -2.0173268616152125e+03 -4.2549966566889644e+07 
-9.3999999999999808e+00 -5.6524997635748730e-01 +7.7413890259949527e+00 -8.5797340820406853e-01 -4.7341458222205723e+01 +8.2475060410723781e+03 -1.5223008161680268e+03 -4.2545717883218147e+07 
-9.4999999999999805e+00 -5.6525032046229007e-01 +7.7414067654303738e+00 -8.5885710532512782e-01 -4.7507104125615470e+01 +8.2480763269001054e+03 -6.6854175053163988e+02 -4.2542114998716339e+07 
-9.5999999999999801e+00 -5.6525068767068021e-01 +7.7414265854608866e+00 -8.5949337198739240e-01 -4.7730821346275867e+01 +8.2476196059180256e+03 +5.5271773446176053e+02 -4.2539886690436877e+07 
-9.6999999999999797e+00 -5.6525107933819985e-01 +7.7414484431363890e+00 -8.5987263262970515e-01 -4.8013276186836919e+01 +8.2461901151146831e+03 +2.1502458627818846e+03 -4.2539761604147978e+07 
-9.7999999999999794e+00 -5.6525149682040587e-01 +7.7414722954939803e+00 -8.5998530038130694e-01 -4.8355134762281914e+01 +8.2438418631811946e+03 +4.1328104339569200e+03 -4.2542467298405990e+07 
-9.8999999999999808e+00 -5.6525194147284141e-01 +7.7414980995710785e+00 -8.5982179183668483e-01 -4.8757063387509568e+01 +8.2406289159265834e+03 +6.5091810991222674e+03 -4.2548731616214857e+07 
-9.9999999999999805e+00 -5.6525241465112130e-01 +7.7415258123874118e+00 -8.5937251536649228e-01 -4.9219727989809776e+01 +8.2366051753130705e+03 +9.2881258444635678e+03 -4.2559281637615651e+07 
-1.0100000000000000e+01 -5.6525291707176506e-01 +7.7415554010734686e+00 -8.5863848727757364e-01 -4.9743543541612205e+01 +8.2319252437359974e+03 +1.2474357897374362e+04 -4.2575129294440314e+07 
