# multipoles
# s[mm] polynom_b[n=0][T/m^n] polynom_b[n=1][T/m^n] polynom_b[n=2][T/m^n] polynom_b[n=3][T/m^n] polynom_b[n=4][T/m^n] polynom_b[n=5][T/m^n] polynom_b[n=6][T/m^n] 
+0.0000000000000000e+00 -5.9307129152299043e-01 +8.1010130108917622e+00 -1.6155412504292015e+00 +6.0977833309243053e+01 +1.2343060207113438e+04 -5.1813927412412246e+05 -5.8367672116839588e+07 
+1.0000000000000001e-01 -5.9307102991168370e-01 +8.1009966035340071e+00 -1.6185841889392969e+00 +6.0852057755337192e+01 +1.2379531712310143e+04 -5.1624863446927583e+05 -5.8529765473270215e+07 
+2.0000000000000001e-01 -5.9307077039027578e-01 +8.1009800748911420e+00 -1.6222979426889399e+00 +6.0738303209472363e+01 +1.2425186607899766e+04 -5.1436596254903177e+05 -5.8727061528678961e+07 
+2.9999999999999999e-01 -5.9307051383482645e-01 +8.1009633202273257e+00 -1.6266005498869411e+00 +6.0639686454982701e+01 +1.2478746024984290e+04 -5.1251244161248172e+05 -5.8954171470422059e+07 
+4.0000000000000002e-01 -5.9307026112134564e-01 +8.1009462348049084e+00 -1.6314100489511445e+00 +6.0559324343567056e+01 +1.2538931088733674e+04 -5.1070925537342881e+05 -5.9205706429879420e+07 
+5.0000000000000000e-01 -5.9307001312591801e-01 +8.1009287138966517e+00 -1.6366444775233719e+00 +6.0500333441689222e+01 +1.2604462914586196e+04 -5.0897758594800142e+05 -5.9476277505597353e+07 
+5.9999999999999998e-01 -5.9306977072458789e-01 +8.1009106527688122e+00 -1.6422218735605161e+00 +6.0465830516408346e+01 +1.2674062611635465e+04 -5.0733861666078214e+05 -5.9760495730171390e+07 
+6.9999999999999996e-01 -5.9306953479336522e-01 +8.1008919466941425e+00 -1.6480602760542011e+00 +6.0458932163143366e+01 +1.2746451308991747e+04 -5.0581352990957239e+05 -6.0052972230686620e+07 
+8.0000000000000004e-01 -5.9306930620831277e-01 +8.1008724909456404e+00 -1.6540777246426004e+00 +6.0482754974398446e+01 +1.2820350143053454e+04 -5.0442350810520543e+05 -6.0348318152279645e+07 
+9.0000000000000002e-01 -5.9306908584547446e-01 +8.1008521807901772e+00 -1.6601922576411268e+00 +6.0540415742418098e+01 +1.2894480221424870e+04 -5.0318973489673855e+05 -6.0641144488902308e+07 
+1.0000000000000000e+00 -5.9306887458083890e-01 +8.1008309114980559e+00 -1.6663219167340744e+00 +6.0635031160798370e+01 +1.2967562712279479e+04 -5.0213339338218124e+05 -6.0926062508806393e+07 
+1.1000000000000001e+00 -5.9306867329046131e-01 +8.1008085783336377e+00 -1.6723847424999123e+00 +6.0769718113379412e+01 +1.3038318759787000e+04 -5.0127566783960274e+05 -6.1197683353038475e+07 
+1.2000000000000000e+00 -5.9306848285034763e-01 +8.1007850765655860e+00 -1.6782987778370990e+00 +6.0947593362599847e+01 +1.3105469546563654e+04 -5.0063774187329167e+05 -6.1450618324043959e+07 
+1.3000000000000000e+00 -5.9306830413647293e-01 +8.1007603014519400e+00 -1.6839820662328751e+00 +6.1171773995551980e+01 +1.3167736264718724e+04 -5.0024080104257289e+05 -6.1679478757223502e+07 
+1.3999999999999999e+00 -5.9306813802488689e-01 +8.1007341482498916e+00 -1.6893526526757963e+00 +6.1445377126195929e+01 +1.3223840132029894e+04 -5.0010603109579260e+05 -6.1878876095477752e+07 
+1.5000000000000000e+00 -5.9306798539147609e-01 +8.1007065122104578e+00 -1.6943285840174080e+00 +6.1771520055912781e+01 +1.3272502396708131e+04 -5.0025461891297094e+05 -6.2043421904857919e+07 
+1.6000000000000001e+00 -5.9306784711227323e-01 +8.1006772885818581e+00 -1.6988279077266095e+00 +6.2153320175057914e+01 +1.3312444317399379e+04 -5.0070775195703813e+05 -6.2167727787031338e+07 
+1.7000000000000000e+00 -5.9306772406322361e-01 +8.1006463726049933e+00 -1.7027686744946036e+00 +6.2593895098020994e+01 +1.3342387210705083e+04 -5.0148661903315957e+05 -6.2246405602461413e+07 
+1.8000000000000000e+00 -5.9306761712026657e-01 +8.1006136595100138e+00 -1.7060689360211878e+00 +6.3096362742718597e+01 +1.3361052408559488e+04 -5.0261241073146794e+05 -6.2274067261531249e+07 
+1.8999999999999999e+00 -5.9306752715929678e-01 +8.1005790445240766e+00 -1.7086467455316074e+00 +6.3663841129417378e+01 +1.3367161267331385e+04 -5.0410631830406794e+05 -6.2245324768657692e+07 
+2.0000000000000000e+00 -5.9306745505624414e-01 +8.1005424228661731e+00 -1.7104201601654938e+00 +6.4299448519632747e+01 +1.3359435221536289e+04 -5.0598953445136698e+05 -6.2154790497383751e+07 
+2.1000000000000001e+00 -5.9306740135494018e-01 +8.1005037662558497e+00 -1.7113326803462914e+00 +6.5004428875868612e+01 +1.3337008535741765e+04 -5.0827331973396766e+05 -6.1998820520974204e+07 
+2.2000000000000002e+00 -5.9306736527446891e-01 +8.1004633542537281e+00 -1.7114301242518626e+00 +6.5772490970771727e+01 +1.3300682289891627e+04 -5.1092913470151694e+05 -6.1780831265498728e+07 
+2.2999999999999998e+00 -5.9306734570369024e-01 +8.1004215438594400e+00 -1.7107840261377498e+00 +6.6595449650300793e+01 +1.3251678151800812e+04 -5.1391846830318653e+05 -6.1506025573910825e+07 
+2.3999999999999999e+00 -5.9306734153143270e-01 +8.1003786920703273e+00 -1.7094659217225894e+00 +6.7465119837506023e+01 +1.3191217827670351e+04 -5.1720281001218129e+05 -6.1179606495803453e+07 
+2.5000000000000000e+00 -5.9306735164650259e-01 +8.1003351558909387e+00 -1.7075473462374460e+00 +6.8373316211562397e+01 +1.3120523020130924e+04 -5.2074364784011082e+05 -6.0806777076399185e+07 
+2.6000000000000001e+00 -5.9306737493781736e-01 +8.1002912923218240e+00 -1.7050998303591576e+00 +6.9311853563900925e+01 +1.3040815362656022e+04 -5.2450247049048601e+05 -6.0392740074883983e+07 
+2.7000000000000002e+00 -5.9306741029424848e-01 +8.1002474583745308e+00 -1.7021949074771774e+00 +7.0272546356312233e+01 +1.2953316548124683e+04 -5.2844076477368211e+05 -5.9942698551439553e+07 
+2.7999999999999998e+00 -5.9306745660468008e-01 +8.1002040110629672e+00 -1.6989041076328737e+00 +7.1247208951056962e+01 +1.2859248223463626e+04 -5.3252001690289029e+05 -5.9461855391972788e+07 
+2.8999999999999999e+00 -5.9306751275807568e-01 +8.1001613074073742e+00 -1.6952989593537440e+00 +7.2227655513184999e+01 +1.2759832020122303e+04 -5.3670171196059592e+05 -5.8955413444266953e+07 
+3.0000000000000000e+00 -5.9306757764338602e-01 +8.1001197044287707e+00 -1.6914509909253934e+00 +7.3205700165475164e+01 +1.2656289582030047e+04 -5.4094733478756319e+05 -5.8428575657284535e+07 
+3.1000000000000001e+00 -5.9306765014957008e-01 +8.1000795591589778e+00 -1.6874317270019856e+00 +7.4173156690886884e+01 +1.2549842499088933e+04 -5.4521836824580573e+05 -5.7886544764153406e+07 
+3.2000000000000002e+00 -5.9306772916567352e-01 +8.1000412286364387e+00 -1.6833126915572623e+00 +7.5121838653997713e+01 +1.2441712373714130e+04 -5.4947629391907039e+05 -5.7334523623984270e+07 
+3.2999999999999998e+00 -5.9306781358076344e-01 +8.1000050699073132e+00 -1.6791654030618903e+00 +7.6043559369279038e+01 +1.2333120716731108e+04 -5.5368259193459712e+05 -5.6777714693821609e+07 
+3.3999999999999999e+00 -5.9306790228389139e-01 +8.0999714400228982e+00 -1.6750613809396568e+00 +7.6930131970929722e+01 +1.2225289084692875e+04 -5.5779874135570298e+05 -5.6221320723977506e+07 
+3.5000000000000000e+00 -5.9306799416420486e-01 +8.0999406960470264e+00 -1.6710721414417435e+00 +7.7773369203541804e+01 +1.2119438990776076e+04 -5.6178621897961467e+05 -5.5670544302007996e+07 
+3.6000000000000001e+00 -5.9306808811087830e-01 +8.0999131950495222e+00 -1.6672691963948039e+00 +7.8565083593129458e+01 +1.2016791892906780e+04 -5.6560650029020268e+05 -5.5130587832383804e+07 
+3.7000000000000002e+00 -5.9306818301309228e-01 +8.0998892941164549e+00 -1.6637240549780219e+00 +7.9297087170624224e+01 +1.1918569221206173e+04 -5.6922105790322844e+05 -5.4606653649062075e+07 
+3.7999999999999998e+00 -5.9306827776014059e-01 +8.0998693503342185e+00 -1.6605082223323304e+00 +7.9961191923680261e+01 +1.1825992355229033e+04 -5.7259136416490679e+05 -5.4103943914397262e+07 
+3.8999999999999999e+00 -5.9306837124128331e-01 +8.0998537208108683e+00 -1.6576932025332940e+00 +8.0549209150020985e+01 +1.1740282682700521e+04 -5.7567888733103941e+05 -5.3627660910521537e+07 
+4.0000000000000000e+00 -5.9306846234594079e-01 +8.0998427626605309e+00 -1.6553504933182452e+00 +8.1052949955045165e+01 +1.1662661499422506e+04 -5.7844509457544610e+05 -5.3183006560340285e+07 
+4.0999999999999996e+00 -5.9306855033869743e-01 +8.0998367106942553e+00 -1.6535306279679682e+00 +8.1466363561925874e+01 +1.1594056910002750e+04 -5.8085987734621682e+05 -5.2774095520504452e+07 
+4.2000000000000002e+00 -5.9306863598475057e-01 +8.0998353126595131e+00 -1.6521970259235070e+00 +8.1791859287970539e+01 +1.1534167569597237e+04 -5.8292591413992574e+05 -5.2400472807460301e+07 
+4.2999999999999998e+00 -5.9306872042449921e-01 +8.0998381949678198e+00 -1.6512904962028745e+00 +8.2033938964287046e+01 +1.1482370359412425e+04 -5.8465384601359628e+05 -5.2060485589336708e+07 
+4.4000000000000004e+00 -5.9306880479827362e-01 +8.0998449840232141e+00 -1.6507518493339806e+00 +8.2197104548412085e+01 +1.1438042168071252e+04 -5.8605431440649217e+05 -5.1752481029852815e+07 
+4.5000000000000000e+00 -5.9306889024639309e-01 +8.0998553062203058e+00 -1.6505218946994742e+00 +8.2285858152332750e+01 +1.1400559848829949e+04 -5.8713796120742895e+05 -5.1474806106005423e+07 
+4.5999999999999996e+00 -5.9306897790911683e-01 +8.0998687879386306e+00 -1.6505414427018443e+00 +8.2304702247956612e+01 +1.1369300257619589e+04 -5.8791543007756281e+05 -5.1225807781135328e+07 
+4.7000000000000002e+00 -5.9306906892675904e-01 +8.0998850555493380e+00 -1.6507513014784383e+00 +8.2258139430811099e+01 +1.1343640190042006e+04 -5.8839736492988991e+05 -5.1003832704509735e+07 
+4.7999999999999998e+00 -5.9306916443956548e-01 +8.0999037354076329e+00 -1.6510922796901848e+00 +8.2150672641212878e+01 +1.1322956426635415e+04 -5.8859441122919798e+05 -5.0807227408579685e+07 
+4.9000000000000004e+00 -5.9306926558775142e-01 +8.0999244538521697e+00 -1.6515051836179766e+00 +8.1986805196431661e+01 +1.1306625685149567e+04 -5.8851721620157792e+05 -5.0634338099461064e+07 
+5.0000000000000000e+00 -5.9306937351152544e-01 +8.0999468372130998e+00 -1.6519308238387389e+00 +8.1771040526091269e+01 +1.1294024742376920e+04 -5.8817642720732454e+05 -5.0483511228279099e+07 
+5.0999999999999996e+00 -5.9306948935104009e-01 +8.0999705118015850e+00 -1.6523100063742460e+00 +8.1507882491981889e+01 +1.1284530262551314e+04 -5.8758269362474373e+05 -5.0353092664537601e+07 
+5.2000000000000002e+00 -5.9306961424646587e-01 +8.0999951039121107e+00 -1.6525835383719218e+00 +8.1201835311766843e+01 +1.1277518903981025e+04 -5.8674666638446355e+05 -5.0241428200128235e+07 
+5.2999999999999998e+00 -5.9306974933790835e-01 +8.1000202398218448e+00 -1.6526922271857218e+00 +8.0857403577372594e+01 +1.1272367304937030e+04 -5.8567899806250690e+05 -5.0146863494931534e+07 
+5.4000000000000004e+00 -5.9306989576546087e-01 +8.1000455457928453e+00 -1.6525768773716192e+00 +8.0479092160563525e+01 +1.1268452021490111e+04 -5.8439034223569708e+05 -5.0067743766015038e+07 
+5.5000000000000000e+00 -5.9307005466909346e-01 +8.1000706480664988e+00 -1.6521782995492071e+00 +8.0071406409527370e+01 +1.1265149689392370e+04 -5.8289135472033138e+05 -5.0002414543636568e+07 
+5.5999999999999996e+00 -5.9307022718888058e-01 +8.1000951728652701e+00 -1.6514372948967910e+00 +7.9638852066858178e+01 +1.1261836740362478e+04 -5.8119269298912154e+05 -4.9949220349053852e+07 
+5.7000000000000002e+00 -5.9307041446471531e-01 +8.1001187463933046e+00 -1.6502946741860025e+00 +7.9185935250279243e+01 +1.1257889751584165e+04 -5.7930501606479089e+05 -4.9906506328277856e+07 
+5.7999999999999998e+00 -5.9307061763658020e-01 +8.1001409948313192e+00 -1.6486912389965762e+00 +7.8717162611177656e+01 +1.1252685091661609e+04 -5.7723898543988122e+05 -4.9872616575212345e+07 
+5.9000000000000004e+00 -5.9307083784431647e-01 +8.1001615443390538e+00 -1.6465677995816921e+00 +7.8237041240859384e+01 +1.1245599259235752e+04 -5.7500526447601186e+05 -4.9845895742213339e+07 
+5.9999999999999902e+00 -5.9307107622777633e-01 +8.1001800210564152e+00 -1.6438651586886903e+00 +7.7750078646902537e+01 +1.1236008570740338e+04 -5.7261451830061956e+05 -4.9824687544623010e+07 
+6.0999999999999899e+00 -5.9307133361062747e-01 +8.1001961368947466e+00 -1.6405384829648810e+00 +7.7260207933690879e+01 +1.1223375191579242e+04 -5.7007830870894692e+05 -4.9807383837806977e+07 
+6.1999999999999904e+00 -5.9307160953995119e-01 +8.1002099346599810e+00 -1.6366055634331280e+00 +7.6769634052991833e+01 +1.1207560374750305e+04 -5.6741494867730269e+05 -4.9792690499560431e+07 
+6.2999999999999901e+00 -5.9307190324037118e-01 +8.1002215368638790e+00 -1.6321011372161074e+00 +7.6280281206284457e+01 +1.1188538135683346e+04 -5.6464530141070473e+05 -4.9779416583886258e+07 
+6.3999999999999897e+00 -5.9307221393662102e-01 +8.1002310660231522e+00 -1.6270599416243814e+00 +7.5794073669362859e+01 +1.1166282501019381e+04 -5.6179023101438174e+05 -4.9766371193526052e+07 
+6.4999999999999902e+00 -5.9307254085326577e-01 +8.1002386446657422e+00 -1.6215167201842733e+00 +7.5312935607929035e+01 +1.1140767629687811e+04 -5.5887060147838388e+05 -4.9752364070076540e+07 
+6.5999999999999899e+00 -5.9307288321502516e-01 +8.1002443953295966e+00 -1.6155062177166457e+00 +7.4838791115903618e+01 +1.1111967713875565e+04 -5.5590727689420839e+05 -4.9736205108799495e+07 
+6.6999999999999904e+00 -5.9307324024657548e-01 +8.1002484405607706e+00 -1.6090631846091827e+00 +7.4373564280361819e+01 +1.1079857065832077e+04 -5.5292112186427170e+05 -4.9716704783367544e+07 
+6.7999999999999901e+00 -5.9307361117250079e-01 +8.1002509029152403e+00 -1.6022223714720103e+00 +7.3919179150729505e+01 +1.1044410016404585e+04 -5.4993300138010504e+05 -4.9692673662375644e+07 
+6.8999999999999897e+00 -5.9307399521749060e-01 +8.1002519049607571e+00 -1.5950185371370234e+00 +7.3477559676715558e+01 +1.1005601063541897e+04 -5.4696378043876600e+05 -4.9662923106984541e+07 
+6.9999999999999902e+00 -5.9307439160620967e-01 +8.1002515692819390e+00 -1.5874864442486030e+00 +7.3050629598131124e+01 +1.0963404795088798e+04 -5.4403432350919722e+05 -4.9626264916188225e+07 
+7.0999999999999899e+00 -5.9307479956326203e-01 +8.1002500184641004e+00 -1.5796608554849143e+00 +7.2640312880059042e+01 +1.0917795813633631e+04 -5.4116549695566611e+05 -4.9581510962556340e+07 
+7.1999999999999904e+00 -5.9307521831327570e-01 +8.1002473751159467e+00 -1.5715765420069430e+00 +7.2248533126850944e+01 +1.0868748899175827e+04 -5.3837816584083927e+05 -4.9527473968488559e+07 
+7.2999999999999901e+00 -5.9307564708092508e-01 +8.1002437618538590e+00 -1.5632682773674276e+00 +7.1877213985984469e+01 +1.0816238894290991e+04 -5.3569319612634066e+05 -4.9462966960000001e+07 
+7.3999999999999897e+00 -5.9307608509084386e-01 +8.1002393013129428e+00 -1.5547708404055505e+00 +7.1528278881322962e+01 +1.0760240758646400e+04 -5.3313145326466009e+05 -4.9386803526976019e+07 
+7.4999999999999902e+00 -5.9307653156761708e-01 +8.1002341161326612e+00 -1.5461190170596739e+00 +7.1203651413559683e+01 +1.0700729603026975e+04 -5.3071380448599474e+05 -4.9297797977933079e+07 
+7.5999999999999899e+00 -5.9307698573593137e-01 +8.1002283289779324e+00 -1.5373475924419104e+00 +7.0905254779530637e+01 +1.0637680542879934e+04 -5.2846111550698976e+05 -4.9194764657387465e+07 
+7.6999999999999904e+00 -5.9307744682036090e-01 +8.1002220625220307e+00 -1.5284913635435966e+00 +7.0635012263904159e+01 +1.0571068938293365e+04 -5.2639425337030902e+05 -4.9076519078426242e+07 
+7.7999999999999901e+00 -5.9307791404560084e-01 +8.1002154394586316e+00 -1.5195851278409698e+00 +7.0394846902909137e+01 +1.0500870178111303e+04 -5.2453408453561773e+05 -4.8941876899267502e+07 
+7.8999999999999897e+00 -5.9307838663621393e-01 +8.1002085824964905e+00 -1.5106636902855111e+00 +7.0186681656480232e+01 +1.0427059814080321e+04 -5.2290147592384141e+05 -4.8789654559619606e+07 
+7.9999999999999902e+00 -5.9307886381681751e-01 +8.1002016143590740e+00 -1.5017618610050456e+00 +7.0012439411892828e+01 +1.0349613515408852e+04 -5.2151729471834679e+05 -4.8618669045869000e+07 
+8.0999999999999908e+00 -5.9307934480278235e-01 +8.1001946734804129e+00 -1.4929164049471175e+00 +6.9873001614003641e+01 +1.0268660887904587e+04 -5.2039477087999415e+05 -4.8428551391559131e+07 
+8.1999999999999904e+00 -5.9307982879340637e-01 +8.1001879726559025e+00 -1.4841698344472452e+00 +6.9764449563539287e+01 +1.0184947401650263e+04 -5.1951415053139313e+05 -4.8222319429140292e+07 
+8.2999999999999901e+00 -5.9308031498915814e-01 +8.1001817463791301e+00 -1.4755656400960739e+00 +6.9681490737055938e+01 +1.0099375163415891e+04 -5.1884671918917703e+05 -4.8003881372912347e+07 
+8.3999999999999897e+00 -5.9308080259051954e-01 +8.1001762291625656e+00 -1.4671473092417888e+00 +6.9618831948748038e+01 +1.0012846239988537e+04 -5.1836375862115633e+05 -4.7777145300681405e+07 
+8.4999999999999893e+00 -5.9308129079808969e-01 +8.1001716555294880e+00 -1.4589583244444622e+00 +6.9571179587055838e+01 +9.9262626209258196e+03 -5.1803654800213751e+05 -4.7546018965923235e+07 
+8.5999999999999908e+00 -5.9308177881248514e-01 +8.1001682600142431e+00 -1.4510421609085751e+00 +6.9533239608882596e+01 +9.8405261727213838e+03 -5.1783636390107352e+05 -4.7314409592575803e+07 
+8.6999999999999904e+00 -5.9308226583441537e-01 +8.1001662771695564e+00 -1.4434422921372234e+00 +6.9499717329008249e+01 +9.7565387466434313e+03 -5.1773447907129722e+05 -4.7086224387892202e+07 
+8.7999999999999794e+00 -5.9308275106466457e-01 +8.1001659415587604e+00 -1.4362021811282193e+00 +6.9465317623934283e+01 +9.6752020113732196e+03 -5.1770216358070460e+05 -4.6865369746343188e+07 
+8.8999999999999808e+00 -5.9308323370403027e-01 +8.1001674877673633e+00 -1.4293652877935099e+00 +6.9424744619733758e+01 +9.5974175927564665e+03 -5.1771068306397018e+05 -4.6655751911608860e+07 
+8.9999999999999805e+00 -5.9308371295343021e-01 +8.1001711503843836e+00 -1.4229750671185672e+00 +6.9372702193049918e+01 +9.5240870416286798e+03 -5.1773130153598427e+05 -4.6461276832067676e+07 
+9.0999999999999801e+00 -5.9308418801385110e-01 +8.1001771640252294e+00 -1.4170749642872185e+00 +6.9303893346273625e+01 +9.4561117398284023e+03 -5.1773527787722030e+05 -4.6285849710124530e+07 
+9.1999999999999797e+00 -5.9308465808628574e-01 +8.1001857633165439e+00 -1.4117084229621213e+00 +6.9213020594750930e+01 +9.3943930615070094e+03 -5.1769386794118764e+05 -4.6133375781019270e+07 
+9.2999999999999794e+00 -5.9308512237189903e-01 +8.1001971829008266e+00 -1.4069188748570198e+00 +6.9094785865534661e+01 +9.3398321682226542e+03 -5.1757832406599820e+05 -4.6007759319864690e+07 
+9.3999999999999808e+00 -5.9308558007184975e-01 +8.1002116574366294e+00 -1.4027497518521244e+00 +6.8943890468459514e+01 +9.2933302466183741e+03 -5.1735989485220204e+05 -4.5912904793032251e+07 
+9.4999999999999805e+00 -5.9308603038743268e-01 +8.1002294216033928e+00 -1.3992444714374939e+00 +6.8755034959588954e+01 +9.2557882281379843e+03 -5.1700982438327622e+05 -4.5852715515747130e+07 
+9.5999999999999801e+00 -5.9308647251992130e-01 +8.1002507100937198e+00 -1.3964464496330709e+00 +6.8522919353945312e+01 +9.2281070380297242e+03 -5.1649935343992768e+05 -4.5831094844888918e+07 
+9.6999999999999797e+00 -5.9308690567085587e-01 +8.1002757576189097e+00 -1.3943990900341106e+00 +6.8242242963822605e+01 +9.2111873851716373e+03 -5.1579971856432996e+05 -4.5851945177133895e+07 
+9.7999999999999794e+00 -5.9308732904164674e-01 +8.1003047989096704e+00 -1.3931457968418639e+00 +6.7907704374216607e+01 +9.2059300080885441e+03 -5.1488215191682958e+05 -4.5919169112723142e+07 
+9.8999999999999808e+00 -5.9308774183394319e-01 +8.1003380687156152e+00 -1.3927299590709279e+00 +6.7514001453172810e+01 +9.2132353831178061e+03 -5.1371788132074021e+05 -4.6036668091522560e+07 
+9.9999999999999805e+00 -5.9308814324943482e-01 +8.1003758018004124e+00 -1.3931949595815556e+00 +6.7055831474172379e+01 +9.2340038844007395e+03 -5.1227813131870754e+05 -4.6208343152884036e+07 
+1.0100000000000000e+01 -5.9308853279844198e-01 +8.1004181214667632e+00 -1.3945681491134254e+00 +6.6529922451063570e+01 +9.2688578056582628e+03 -5.1054433595059719e+05 -4.6436954654549211e+07 
