# field on trajectory
# s[mm] rx[mm] ry[mm] rz[mm] bx[T] by[T] bz[T]
0.0000000000000000e+00 +8.1529999999999987e+00 +0.0000000000000000e+00 +0.0000000000000000e+00 -2.8329053215583381e-02 -5.3707326662400146e-01 +5.4571781350208418e-03
1.0000000000000001e-01 +8.1529997168388935e+00 +0.0000000000000000e+00 +9.9999999999465461e-02 -2.8328769046461654e-02 -5.3707276563496564e-01 +5.4572617514689710e-03
2.0000000000000001e-01 +8.1529988673559277e+00 +0.0000000000000000e+00 +1.9999999999572371e-01 -2.8328475860482007e-02 -5.3707227027296156e-01 +5.4573417735421098e-03
3.0000000000000004e-01 +8.1529974515516255e+00 +0.0000000000000000e+00 +2.9999999998556759e-01 -2.8328174427360988e-02 -5.3707178071945927e-01 +5.4574183299344933e-03
4.0000000000000002e-01 +8.1529954694265019e+00 +0.0000000000000000e+00 +3.9999999996578983e-01 -2.8327865516814540e-02 -5.3707129715593371e-01 +5.4574915493401221e-03
5.0000000000000000e-01 +8.1529929209810668e+00 +0.0000000000000000e+00 +4.9999999993318334e-01 -2.8327549898557167e-02 -5.3707081976386550e-01 +5.4575615604527724e-03
5.9999999999999998e-01 +8.1529898062158228e+00 +0.0000000000000000e+00 +5.9999999988454089e-01 -2.8327228342301145e-02 -5.3707034872473880e-01 +5.4576284919659697e-03
6.9999999999999996e-01 +8.1529861251312692e+00 +0.0000000000000000e+00 +6.9999999981665528e-01 -2.8326901617755720e-02 -5.3706988422004098e-01 +5.4576924725729817e-03
7.9999999999999993e-01 +8.1529818777278944e+00 +0.0000000000000000e+00 +7.9999999972631941e-01 -2.8326570494626276e-02 -5.3706942643126210e-01 +5.4577536309668101e-03
8.9999999999999991e-01 +8.1529770640061816e+00 +0.0000000000000000e+00 +8.9999999961032617e-01 -2.8326235742613552e-02 -5.3706897553989330e-01 +5.4578120958401772e-03
9.9999999999999989e-01 +8.1529716839666051e+00 +0.0000000000000000e+00 +9.9999999946546836e-01 -2.8325898131412786e-02 -5.3706853172742652e-01 +5.4578679958855085e-03
1.0999999999999999e+00 +8.1529657376096338e+00 +0.0000000000000000e+00 +1.0999999992885390e+00 -2.8325558430712966e-02 -5.3706809517535381e-01 +5.4579214597949271e-03
1.2000000000000000e+00 +8.1529592249357297e+00 +0.0000000000000000e+00 +1.1999999990763308e+00 -2.8325217410195974e-02 -5.3706766606516565e-01 +5.4579726162602418e-03
1.3000000000000000e+00 +8.1529521459453438e+00 +0.0000000000000000e+00 +1.2999999988256365e+00 -2.8324875839535812e-02 -5.3706724457835142e-01 +5.4580215939729277e-03
1.4000000000000001e+00 +8.1529445006389203e+00 +0.0000000000000000e+00 +1.3999999985332494e+00 -2.8324534488397758e-02 -5.3706683089639740e-01 +5.4580685216241258e-03
1.5000000000000002e+00 +8.1529362890168962e+00 +0.0000000000000000e+00 +1.4999999981959622e+00 -2.8324194126437604e-02 -5.3706642520078662e-01 +5.4581135279046233e-03
1.6000000000000003e+00 +8.1529275110797013e+00 +0.0000000000000000e+00 +1.5999999978105677e+00 -2.8323855523300790e-02 -5.3706602767299738e-01 +5.4581567415048432e-03
1.7000000000000004e+00 +8.1529181668277531e+00 +0.0000000000000000e+00 +1.6999999973738589e+00 -2.8323519448621610e-02 -5.3706563849450317e-01 +5.4581982911148337e-03
1.8000000000000005e+00 +8.1529082562614619e+00 +0.0000000000000000e+00 +1.7999999968826286e+00 -2.8323186672022466e-02 -5.3706525784677162e-01 +5.4582383054242595e-03
1.9000000000000006e+00 +8.1528977793812309e+00 +0.0000000000000000e+00 +1.8999999963336698e+00 -2.8322857963112950e-02 -5.3706488591126289e-01 +5.4582769131223735e-03
2.0000000000000004e+00 +8.1528867361874511e+00 +0.0000000000000000e+00 +1.9999999957237755e+00 -2.8322534091489146e-02 -5.3706452286943074e-01 +5.4583142428980330e-03
2.1000000000000005e+00 +8.1528751266805077e+00 +0.0000000000000000e+00 +2.0999999950497386e+00 -2.8322215712297462e-02 -5.3706416871603901e-01 +5.4583503726699182e-03
2.2000000000000006e+00 +8.1528629508607722e+00 +0.0000000000000000e+00 +2.1999999943083521e+00 -2.8321903022934948e-02 -5.3706382269912456e-01 +5.4583851772769913e-03
2.3000000000000007e+00 +8.1528502087286121e+00 +0.0000000000000000e+00 +2.2999999934964088e+00 -2.8321596106367385e-02 -5.3706348388003800e-01 +5.4584184807872091e-03
2.4000000000000008e+00 +8.1528369002843846e+00 +0.0000000000000000e+00 +2.3999999926107018e+00 -2.8321295045567588e-02 -5.3706315132012117e-01 +5.4584501072670972e-03
2.5000000000000009e+00 +8.1528230255284395e+00 +0.0000000000000000e+00 +2.4999999916480240e+00 -2.8320999923517182e-02 -5.3706282408070971e-01 +5.4584798807816356e-03
2.6000000000000010e+00 +8.1528085844611233e+00 +0.0000000000000000e+00 +2.5999999906051681e+00 -2.8320710823208015e-02 -5.3706250122312993e-01 +5.4585076253941623e-03
2.7000000000000011e+00 +8.1527935770827771e+00 +0.0000000000000000e+00 +2.6999999894789273e+00 -2.8320427827643883e-02 -5.3706218180870025e-01 +5.4585331651662581e-03
2.8000000000000012e+00 +8.1527780033937383e+00 +0.0000000000000000e+00 +2.7999999882660949e+00 -2.8320151019841980e-02 -5.3706186489872931e-01 +5.4585563241576311e-03
2.9000000000000012e+00 +8.1527618633943408e+00 +0.0000000000000000e+00 +2.8999999869634632e+00 -2.8319880482834608e-02 -5.3706154955451679e-01 +5.4585769264260241e-03
3.0000000000000013e+00 +8.1527451570849188e+00 +0.0000000000000000e+00 +2.9999999855678254e+00 -2.8319616299670679e-02 -5.3706123483735213e-01 +5.4585947960270912e-03
3.1000000000000014e+00 +8.1527278844658042e+00 +0.0000000000000000e+00 +3.0999999840759749e+00 -2.8319358553417290e-02 -5.3706091980851389e-01 +5.4586097570142895e-03
3.2000000000000015e+00 +8.1527100455373311e+00 +0.0000000000000000e+00 +3.1999999824847043e+00 -2.8319107327161398e-02 -5.3706060352927043e-01 +5.4586216334387818e-03
3.3000000000000016e+00 +8.1526916402998317e+00 +0.0000000000000000e+00 +3.2999999807908069e+00 -2.8318862704011290e-02 -5.3706028506087744e-01 +5.4586302493493119e-03
3.4000000000000017e+00 +8.1526726687536435e+00 +0.0000000000000000e+00 +3.3999999789910755e+00 -2.8318624767098247e-02 -5.3705996346457985e-01 +5.4586354287921093e-03
3.5000000000000018e+00 +8.1526531308991057e+00 +0.0000000000000000e+00 +3.4999999770823029e+00 -2.8318393599578079e-02 -5.3705963780160970e-01 +5.4586369958107804e-03
3.6000000000000019e+00 +8.1526330267365630e+00 +0.0000000000000000e+00 +3.5999999750612823e+00 -2.8318169284632731e-02 -5.3705930713318673e-01 +5.4586347744461786e-03
3.7000000000000020e+00 +8.1526123562663653e+00 +0.0000000000000000e+00 +3.6999999729248070e+00 -2.8317951905471900e-02 -5.3705897052051610e-01 +5.4586285887363237e-03
3.8000000000000020e+00 +8.1525911194888678e+00 +0.0000000000000000e+00 +3.7999999706696697e+00 -2.8317741545334528e-02 -5.3705862702479057e-01 +5.4586182627162768e-03
3.9000000000000021e+00 +8.1525693164044331e+00 +0.0000000000000000e+00 +3.8999999682926636e+00 -2.8317538287490486e-02 -5.3705827570718789e-01 +5.4586036204180366e-03
4.0000000000000018e+00 +8.1525469470134322e+00 +0.0000000000000000e+00 +3.9999999657905816e+00 -2.8317342215242076e-02 -5.3705791562887095e-01 +5.4585844858704305e-03
4.1000000000000014e+00 +8.1525240113162472e+00 +0.0000000000000000e+00 +4.0999999631602169e+00 -2.8317153314944100e-02 -5.3705754607787637e-01 +5.4585607334777372e-03
4.2000000000000011e+00 +8.1525005093132670e+00 +0.0000000000000000e+00 +4.1999999603983627e+00 -2.8316971185044098e-02 -5.3705716724978181e-01 +5.4585324391586013e-03
4.3000000000000007e+00 +8.1524764410048931e+00 +0.0000000000000000e+00 +4.2999999575018117e+00 -2.8316795326999291e-02 -5.3705677956705544e-01 +5.4584997292143507e-03
4.4000000000000004e+00 +8.1524518063915341e+00 +0.0000000000000000e+00 +4.3999999544673569e+00 -2.8316625242253098e-02 -5.3705638345216777e-01 +5.4584627299511463e-03
4.5000000000000000e+00 +8.1524266054736074e+00 +0.0000000000000000e+00 +4.4999999512917919e+00 -2.8316460432233792e-02 -5.3705597932759308e-01 +5.4584215676803469e-03
4.5999999999999996e+00 +8.1524008382515412e+00 +0.0000000000000000e+00 +4.5999999479719094e+00 -2.8316300398353204e-02 -5.3705556761581041e-01 +5.4583763687188541e-03
4.6999999999999993e+00 +8.1523745047257705e+00 +0.0000000000000000e+00 +4.6999999445045031e+00 -2.8316144642005322e-02 -5.3705514873930393e-01 +5.4583272593894906e-03
4.7999999999999989e+00 +8.1523476048967378e+00 +0.0000000000000000e+00 +4.7999999408863658e+00 -2.8315992664565019e-02 -5.3705472312056257e-01 +5.4582743660213425e-03
4.8999999999999986e+00 +8.1523201387648907e+00 +0.0000000000000000e+00 +4.8999999371142904e+00 -2.8315843967386678e-02 -5.3705429118208226e-01 +5.4582178149501399e-03
4.9999999999999982e+00 +8.1522921063306875e+00 +0.0000000000000000e+00 +4.9999999331850695e+00 -2.8315698051802875e-02 -5.3705385334636591e-01 +5.4581577325185961e-03
5.0999999999999979e+00 +8.1522635075945900e+00 +0.0000000000000000e+00 +5.0999999290954969e+00 -2.8315554419123014e-02 -5.3705341003592366e-01 +5.4580942450767767e-03
5.1999999999999975e+00 +8.1522343425570671e+00 +0.0000000000000000e+00 +5.1999999248423663e+00 -2.8315412570632033e-02 -5.3705296167327365e-01 +5.4580274789824672e-03
5.2999999999999972e+00 +8.1522046112185933e+00 +0.0000000000000000e+00 +5.2999999204224704e+00 -2.8315272007588998e-02 -5.3705250868094334e-01 +5.4579575606015169e-03
5.3999999999999968e+00 +8.1521743135796463e+00 +0.0000000000000000e+00 +5.3999999158326020e+00 -2.8315132231225865e-02 -5.3705205148146939e-01 +5.4578846163082177e-03
5.4999999999999964e+00 +8.1521434496407092e+00 +0.0000000000000000e+00 +5.4999999110695548e+00 -2.8314992742746070e-02 -5.3705159049739848e-01 +5.4578087724856447e-03
5.5999999999999961e+00 +8.1521120194022689e+00 +0.0000000000000000e+00 +5.5999999061301216e+00 -2.8314853043323214e-02 -5.3705112615128803e-01 +5.4577301555260322e-03
5.6999999999999957e+00 +8.1520800228648156e+00 +0.0000000000000000e+00 +5.6999999010110960e+00 -2.8314712634099733e-02 -5.3705065886570724e-01 +5.4576488918311218e-03
5.7999999999999954e+00 +8.1520474600288431e+00 +0.0000000000000000e+00 +5.7999998957092709e+00 -2.8314571016185546e-02 -5.3705018906323654e-01 +5.4575651078125325e-03
5.8999999999999950e+00 +8.1520143308948487e+00 +0.0000000000000000e+00 +5.8999998902214399e+00 -2.8314427690656747e-02 -5.3704971716646988e-01 +5.4574789298921112e-03
5.9999999999999947e+00 +8.1519806354633300e+00 +0.0000000000000000e+00 +5.9999998845443958e+00 -2.8314282158554253e-02 -5.3704924359801365e-01 +5.4573904845023032e-03
6.0999999999999943e+00 +8.1519463737347877e+00 +0.0000000000000000e+00 +6.0999998786749314e+00 -2.8314134100292324e-02 -5.3704876881408048e-01 +5.4572998827669044e-03
6.1999999999999940e+00 +8.1519115457097229e+00 +0.0000000000000000e+00 +6.1999998726098413e+00 -2.8313983913905827e-02 -5.3704829340526861e-01 +5.4572071745366850e-03
6.2999999999999936e+00 +8.1518761513886400e+00 +0.0000000000000000e+00 +6.2999998663459174e+00 -2.8313832176847742e-02 -5.3704781799580004e-01 +5.4571123943383225e-03
6.3999999999999932e+00 +8.1518401907720399e+00 +0.0000000000000000e+00 +6.3999998598799541e+00 -2.8313679466582808e-02 -5.3704734320993031e-01 +5.4570155766923752e-03
6.4999999999999929e+00 +8.1518036638604237e+00 +0.0000000000000000e+00 +6.4999998532087435e+00 -2.8313526360588093e-02 -5.3704686967195059e-01 +5.4569167561129223e-03
6.5999999999999925e+00 +8.1517665706542921e+00 +0.0000000000000000e+00 +6.5999998463290801e+00 -2.8313373436353800e-02 -5.3704639800618859e-01 +5.4568159671072583e-03
6.6999999999999922e+00 +8.1517289111541444e+00 +0.0000000000000000e+00 +6.6999998392377567e+00 -2.8313221271383793e-02 -5.3704592883700997e-01 +5.4567132441755203e-03
6.7999999999999918e+00 +8.1516906853604763e+00 +0.0000000000000000e+00 +6.7999998319315660e+00 -2.8313070443196364e-02 -5.3704546278881959e-01 +5.4566086218103818e-03
6.8999999999999915e+00 +8.1516518932737814e+00 +0.0000000000000000e+00 +6.8999998244073018e+00 -2.8312921529324842e-02 -5.3704500048606385e-01 +5.4565021344966909e-03
6.9999999999999911e+00 +8.1516125348945465e+00 +0.0000000000000000e+00 +6.9999998166617576e+00 -2.8312775107318292e-02 -5.3704454255323031e-01 +5.4563938167111409e-03
7.0999999999999908e+00 +8.1515726102232566e+00 +0.0000000000000000e+00 +7.0999998086917264e+00 -2.8312631754742187e-02 -5.3704408961485017e-01 +5.4562837029219378e-03
7.1999999999999904e+00 +8.1515321192603896e+00 +0.0000000000000000e+00 +7.1999998004940018e+00 -2.8312492049179010e-02 -5.3704364229549939e-01 +5.4561718275884519e-03
7.2999999999999901e+00 +8.1514910620064196e+00 +0.0000000000000000e+00 +7.2999997920653774e+00 -2.8312356568229009e-02 -5.3704320121980043e-01 +5.4560582251608905e-03
7.3999999999999897e+00 +8.1514494384618121e+00 +0.0000000000000000e+00 +7.3999997834026461e+00 -2.8312225889510795e-02 -5.3704276701242204e-01 +5.4559429300799454e-03
7.4999999999999893e+00 +8.1514072486270273e+00 +0.0000000000000000e+00 +7.4999997745026015e+00 -2.8312100590662019e-02 -5.3704234029808284e-01 +5.4558259767764680e-03
7.5999999999999890e+00 +8.1513644925025162e+00 +0.0000000000000000e+00 +7.5999997653620364e+00 -2.8311981249340062e-02 -5.3704192170155085e-01 +5.4557073996711241e-03
7.6999999999999886e+00 +8.1513211700887211e+00 +0.0000000000000000e+00 +7.6999997559777444e+00 -2.8311868443222664e-02 -5.3704151184764604e-01 +5.4555872331740673e-03
7.7999999999999883e+00 +8.1512772813860757e+00 +0.0000000000000000e+00 +7.7999997463465194e+00 -2.8311762750008625e-02 -5.3704111136124055e-01 +5.4554655116845789e-03
7.8999999999999879e+00 +8.1512328263950025e+00 +0.0000000000000000e+00 +7.8999997364651540e+00 -2.8311664747418395e-02 -5.3704072086726096e-01 +5.4553422695907535e-03
7.9999999999999876e+00 +8.1511878051159172e+00 +0.0000000000000000e+00 +7.9999997263304419e+00 -2.8311575013194829e-02 -5.3704034099068909e-01 +5.4552175412691441e-03
8.0999999999999872e+00 +8.1511422175492196e+00 +0.0000000000000000e+00 +8.0999997159391768e+00 -2.8311493836714673e-02 -5.3703997227352829e-01 +5.4550913591582826e-03
8.1999999999999869e+00 +8.1510960636953005e+00 +0.0000000000000000e+00 +8.1999997052881515e+00 -2.8311420353809093e-02 -5.3703961492565189e-01 +5.4549637479825103e-03
8.2999999999999865e+00 +8.1510493435545381e+00 +0.0000000000000000e+00 +8.2999996943741596e+00 -2.8311353411930477e-02 -5.3703926907383592e-01 +5.4548347305350027e-03
8.3999999999999861e+00 +8.1510020571272985e+00 +0.0000000000000000e+00 +8.3999996831939949e+00 -2.8311291858545858e-02 -5.3703893484478482e-01 +5.4547043296045202e-03
8.4999999999999858e+00 +8.1509542044139351e+00 +0.0000000000000000e+00 +8.4999996717444493e+00 -2.8311234541137247e-02 -5.3703861236512584e-01 +5.4545725679753191e-03
8.5999999999999854e+00 +8.1509057854147908e+00 +0.0000000000000000e+00 +8.5999996600223181e+00 -2.8311180307202019e-02 -5.3703830176140954e-01 +5.4544394684270673e-03
8.6999999999999851e+00 +8.1508568001301942e+00 +0.0000000000000000e+00 +8.6999996480243933e+00 -2.8311128004253283e-02 -5.3703800316010475e-01 +5.4543050537347584e-03
8.7999999999999847e+00 +8.1508072485604615e+00 +0.0000000000000000e+00 +8.7999996357474686e+00 -2.8311076479820282e-02 -5.3703771668759770e-01 +5.4541693466686053e-03
8.8999999999999844e+00 +8.1507571307058964e+00 +0.0000000000000000e+00 +8.8999996231883376e+00 -2.8311024581448720e-02 -5.3703744247018825e-01 +5.4540323699939783e-03
8.9999999999999840e+00 +8.1507064465667902e+00 +0.0000000000000000e+00 +8.9999996103437940e+00 -2.8310971156701163e-02 -5.3703718063408801e-01 +5.4538941464712847e-03
9.0999999999999837e+00 +8.1506551961434202e+00 +0.0000000000000000e+00 +9.0999995972106298e+00 -2.8310915053157436e-02 -5.3703693130541663e-01 +5.4537546988559001e-03
9.1999999999999833e+00 +8.1506033794360508e+00 +0.0000000000000000e+00 +9.1999995837856385e+00 -2.8310855118414965e-02 -5.3703669461020120e-01 +5.4536140498980803e-03
9.2999999999999829e+00 +8.1505509964449327e+00 +0.0000000000000000e+00 +9.2999995700656157e+00 -2.8310790200089173e-02 -5.3703647067437155e-01 +5.4534722223428611e-03
9.3999999999999826e+00 +8.1504980471703039e+00 +0.0000000000000000e+00 +9.3999995560473533e+00 -2.8310719145813869e-02 -5.3703625962375912e-01 +5.4533292389299633e-03
9.4999999999999822e+00 +8.1504445316123899e+00 +0.0000000000000000e+00 +9.4999995417276430e+00 -2.8310640803241593e-02 -5.3703606158409312e-01 +5.4531851223937325e-03
9.5999999999999819e+00 +8.1503904497714004e+00 +0.0000000000000000e+00 +9.5999995271032805e+00 -2.8310554020044006e-02 -5.3703587668099961e-01 +5.4530398954630108e-03
9.6999999999999815e+00 +8.1503358016475307e+00 +0.0000000000000000e+00 +9.6999995121710594e+00 -2.8310457643912330e-02 -5.3703570503999665e-01 +5.4528935808610774e-03
9.7999999999999812e+00 +8.1502805872409656e+00 +0.0000000000000000e+00 +9.7999994969277715e+00 -2.8310350522557638e-02 -5.3703554678649346e-01 +5.4527462013055465e-03
9.8999999999999808e+00 +8.1502248065518739e+00 +0.0000000000000000e+00 +9.8999994813702106e+00 -2.8310231503711300e-02 -5.3703540204578737e-01 +5.4525977795082756e-03
9.9999999999999805e+00 +8.1501684595804083e+00 +0.0000000000000000e+00 +9.9999994654951703e+00 -2.8310099435125351e-02 -5.3703527094306103e-01 +5.4524483381752859e-03
1.0099999999999980e+01 +8.1501115463267091e+00 +0.0000000000000000e+00 +1.0099999449299442e+01 -2.8309953550304592e-02 -5.3703515364066412e-01 +5.4522979015314338e-03
1.0199999999999980e+01 +8.1500540667909025e+00 +0.0000000000000000e+00 +1.0199999432779823e+01 -2.8309794625698898e-02 -5.3703505045004174e-01 +5.4521464999025566e-03
1.0299999999999979e+01 +8.1499960209730986e+00 +0.0000000000000000e+00 +1.0299999415933103e+01 -2.8309623823446158e-02 -5.3703496172000431e-01 +5.4519941651549469e-03
1.0399999999999979e+01 +8.1499374088733934e+00 +0.0000000000000000e+00 +1.0399999398756076e+01 -2.8309442305619575e-02 -5.3703488779946318e-01 +5.4518409291729438e-03
1.0499999999999979e+01 +8.1498782304918667e+00 +0.0000000000000000e+00 +1.0499999381245537e+01 -2.8309251234226049e-02 -5.3703482903743371e-01 +5.4516868238594198e-03
1.0599999999999978e+01 +8.1498184858285825e+00 +0.0000000000000000e+00 +1.0599999363398277e+01 -2.8309051771204300e-02 -5.3703478578303643e-01 +5.4515318811362602e-03
1.0699999999999978e+01 +8.1497581748835870e+00 +0.0000000000000000e+00 +1.0699999345211092e+01 -2.8308845078423336e-02 -5.3703475838550196e-01 +5.4513761329448704e-03
1.0799999999999978e+01 +8.1496972976569122e+00 +0.0000000000000000e+00 +1.0799999326680773e+01 -2.8308632317680649e-02 -5.3703474719417232e-01 +5.4512196112466525e-03
1.0899999999999977e+01 +8.1496358541485723e+00 +0.0000000000000000e+00 +1.0899999307804114e+01 -2.8308414650700487e-02 -5.3703475255850408e-01 +5.4510623480234881e-03
1.0999999999999977e+01 +8.1495738443585619e+00 +0.0000000000000000e+00 +1.0999999288577909e+01 -2.8308193239132202e-02 -5.3703477482807083e-01 +5.4509043752782368e-03
1.1099999999999977e+01 +8.1495112682868598e+00 +0.0000000000000000e+00 +1.1099999268998950e+01 -2.8307969244548547e-02 -5.3703481435256706e-01 +5.4507457250352253e-03
1.1199999999999976e+01 +8.1494481259334268e+00 +0.0000000000000000e+00 +1.1199999249064030e+01 -2.8307743828443848e-02 -5.3703487148180895e-01 +5.4505864293407195e-03
1.1299999999999976e+01 +8.1493844172982062e+00 +0.0000000000000000e+00 +1.1299999228769943e+01 -2.8307518152232432e-02 -5.3703494656573991e-01 +5.4504265202634343e-03
1.1399999999999975e+01 +8.1493201423811179e+00 +0.0000000000000000e+00 +1.1399999208113483e+01 -2.8307293377246849e-02 -5.3703503995443025e-01 +5.4502660298950071e-03
1.1499999999999975e+01 +8.1492553011820679e+00 +0.0000000000000000e+00 +1.1499999187091442e+01 -2.8307070664736155e-02 -5.3703515199808205e-01 +5.4501049903504942e-03
1.1599999999999975e+01 +8.1491898937009388e+00 +0.0000000000000000e+00 +1.1599999165700613e+01 -2.8306851175864192e-02 -5.3703528304703163e-01 +5.4499434337688503e-03
1.1699999999999974e+01 +8.1491239199375940e+00 +0.0000000000000000e+00 +1.1699999143937790e+01 -2.8306636071707889e-02 -5.3703543345175087e-01 +5.4497813923134230e-03
1.1799999999999974e+01 +8.1490573798918788e+00 +0.0000000000000000e+00 +1.1799999121799765e+01 -2.8306426513255552e-02 -5.3703560356285263e-01 +5.4496188981724468e-03
