# trajectory
# s[mm] rx[mm] ry[mm] rz[mm] px[rad] py[rad] pz[rad]
0.0000000000000000e+00 +8.1649999999999991e+00 +0.0000000000000000e+00 +0.0000000000000000e+00 +0.0000000000000000e+00 +0.0000000000000000e+00 +1.0000000000000000e+00
-1.0000000000000001e-01 +8.1649997165702750e+00 +0.0000000000000000e+00 -9.9999999999464462e-02 +5.6685934820794704e-06 +0.0000000000000000e+00 +9.9999999998393352e-01
-2.0000000000000001e-01 +8.1649988662815023e+00 +0.0000000000000000e+00 -1.9999999999571560e-01 +1.1337180980614606e-05 +0.0000000000000000e+00 +9.9999999993573419e-01
-3.0000000000000004e-01 +8.1649974491342796e+00 +0.0000000000000000e+00 -2.9999999998554017e-01 +1.7005762447693367e-05 +0.0000000000000000e+00 +9.9999999985540200e-01
-4.0000000000000002e-01 +8.1649954651292145e+00 +0.0000000000000000e+00 -3.9999999996572488e-01 +2.2674337843767393e-05 +0.0000000000000000e+00 +9.9999999974293718e-01
-5.0000000000000000e-01 +8.1649929142669144e+00 +0.0000000000000000e+00 -4.9999999993305649e-01 +2.8342907137651922e-05 +0.0000000000000000e+00 +9.9999999959833974e-01
-5.9999999999999998e-01 +8.1649897965479905e+00 +0.0000000000000000e+00 -5.9999999988432173e-01 +3.4011470306525688e-05 +0.0000000000000000e+00 +9.9999999942160989e-01
-6.9999999999999996e-01 +8.1649861119730573e+00 +0.0000000000000000e+00 -6.9999999981630734e-01 +3.9680027335930807e-05 +0.0000000000000000e+00 +9.9999999921274763e-01
-7.9999999999999993e-01 +8.1649818605427278e+00 +0.0000000000000000e+00 -7.9999999972580016e-01 +4.5348578219772661e-05 +0.0000000000000000e+00 +9.9999999897175318e-01
-8.9999999999999991e-01 +8.1649770422576182e+00 +0.0000000000000000e+00 -8.9999999960958688e-01 +5.1017122960319731e-05 +0.0000000000000000e+00 +9.9999999869862655e-01
-9.9999999999999989e-01 +8.1649716571183415e+00 +0.0000000000000000e+00 -9.9999999946445439e-01 +5.6685661568203462e-05 +0.0000000000000000e+00 +9.9999999839336784e-01
-1.0999999999999999e+00 +8.1649657051255087e+00 +0.0000000000000000e+00 -1.0999999992871894e+00 +6.2354194062418051e-05 +0.0000000000000000e+00 +9.9999999805597717e-01
-1.2000000000000000e+00 +8.1649591862797308e+00 +0.0000000000000000e+00 -1.1999999990745787e+00 +6.8022720470320278e-05 +0.0000000000000000e+00 +9.9999999768645464e-01
-1.3000000000000000e+00 +8.1649521005816155e+00 +0.0000000000000000e+00 -1.2999999988234092e+00 +7.3691240827629292e-05 +0.0000000000000000e+00 +9.9999999728480038e-01
-1.4000000000000001e+00 +8.1649444480317648e+00 +0.0000000000000000e+00 -1.3999999985304676e+00 +7.9359755178426354e-05 +0.0000000000000000e+00 +9.9999999685101448e-01
-1.5000000000000002e+00 +8.1649362286307774e+00 +0.0000000000000000e+00 -1.4999999981925409e+00 +8.5028263575154622e-05 +0.0000000000000000e+00 +9.9999999638509707e-01
-1.6000000000000003e+00 +8.1649274423792466e+00 +0.0000000000000000e+00 -1.5999999978064159e+00 +9.0696766078618890e-05 +0.0000000000000000e+00 +9.9999999588704813e-01
-1.7000000000000004e+00 +8.1649180892777569e+00 +0.0000000000000000e+00 -1.6999999973688795e+00 +9.6365262757985281e-05 +0.0000000000000000e+00 +9.9999999535686790e-01
-1.8000000000000005e+00 +8.1649081693268872e+00 +0.0000000000000000e+00 -1.7999999968767184e+00 +1.0203375369078099e-04 +0.0000000000000000e+00 +9.9999999479455637e-01
-1.9000000000000006e+00 +8.1648976825272079e+00 +0.0000000000000000e+00 -1.8999999963267196e+00 +1.0770223896289393e-04 +0.0000000000000000e+00 +9.9999999420011365e-01
-2.0000000000000004e+00 +8.1648866288792803e+00 +0.0000000000000000e+00 -1.9999999957156700e+00 +1.1337071866857244e-04 +0.0000000000000000e+00 +9.9999999357353986e-01
-2.1000000000000005e+00 +8.1648750083836568e+00 +0.0000000000000000e+00 -2.0999999950403563e+00 +1.1903919291042750e-04 +0.0000000000000000e+00 +9.9999999291483510e-01
-2.2000000000000006e+00 +8.1648628210408773e+00 +0.0000000000000000e+00 -2.1999999942975657e+00 +1.2470766179946053e-04 +0.0000000000000000e+00 +9.9999999222399938e-01
-2.3000000000000007e+00 +8.1648500668514714e+00 +0.0000000000000000e+00 -2.2999999934840849e+00 +1.3037612545509146e-04 +0.0000000000000000e+00 +9.9999999150103280e-01
-2.4000000000000008e+00 +8.1648367458159559e+00 +0.0000000000000000e+00 -2.3999999925967010e+00 +1.3604458400516144e-04 +0.0000000000000000e+00 +9.9999999074593537e-01
-2.5000000000000009e+00 +8.1648228579348352e+00 +0.0000000000000000e+00 -2.4999999916322011e+00 +1.4171303758593273e-04 +0.0000000000000000e+00 +9.9999998995870731e-01
-2.6000000000000010e+00 +8.1648084032085997e+00 +0.0000000000000000e+00 -2.5999999905873716e+00 +1.4738148634208908e-04 +0.0000000000000000e+00 +9.9999998913934851e-01
-2.7000000000000011e+00 +8.1647933816377236e+00 +0.0000000000000000e+00 -2.6999999894589997e+00 +1.5304993042673570e-04 +0.0000000000000000e+00 +9.9999998828785919e-01
-2.8000000000000012e+00 +8.1647777932226653e+00 +0.0000000000000000e+00 -2.7999999882438722e+00 +1.5871837000139955e-04 +0.0000000000000000e+00 +9.9999998740423934e-01
-2.9000000000000012e+00 +8.1647616379638688e+00 +0.0000000000000000e+00 -2.8999999869387763e+00 +1.6438680523602953e-04 +0.0000000000000000e+00 +9.9999998648848898e-01
-3.0000000000000013e+00 +8.1647449158617569e+00 +0.0000000000000000e+00 -2.9999999855404988e+00 +1.7005523630899674e-04 +0.0000000000000000e+00 +9.9999998554060809e-01
-3.1000000000000014e+00 +8.1647276269167381e+00 +0.0000000000000000e+00 -3.0999999840458270e+00 +1.7572366340709483e-04 +0.0000000000000000e+00 +9.9999998456059680e-01
-3.2000000000000015e+00 +8.1647097711292016e+00 +0.0000000000000000e+00 -3.1999999824515473e+00 +1.8139208672554024e-04 +0.0000000000000000e+00 +9.9999998354845521e-01
-3.3000000000000016e+00 +8.1646913484995132e+00 +0.0000000000000000e+00 -3.2999999807544471e+00 +1.8706050646797258e-04 +0.0000000000000000e+00 +9.9999998250418320e-01
-3.4000000000000017e+00 +8.1646723590280210e+00 +0.0000000000000000e+00 -3.3999999789513131e+00 +1.9272892284645502e-04 +0.0000000000000000e+00 +9.9999998142778090e-01
-3.5000000000000018e+00 +8.1646528027150502e+00 +0.0000000000000000e+00 -3.4999999770389323e+00 +1.9839733608147475e-04 +0.0000000000000000e+00 +9.9999998031924830e-01
-3.6000000000000019e+00 +8.1646326795609028e+00 +0.0000000000000000e+00 -3.5999999750140916e+00 +2.0406574640194334e-04 +0.0000000000000000e+00 +9.9999997917858530e-01
-3.7000000000000020e+00 +8.1646119895658593e+00 +0.0000000000000000e+00 -3.6999999728735782e+00 +2.0973415404519730e-04 +0.0000000000000000e+00 +9.9999997800579199e-01
-3.8000000000000020e+00 +8.1645907327301757e+00 +0.0000000000000000e+00 -3.7999999706141789e+00 +2.1540255925699855e-04 +0.0000000000000000e+00 +9.9999997680086838e-01
-3.9000000000000021e+00 +8.1645689090540809e+00 +0.0000000000000000e+00 -3.8999999682326809e+00 +2.2107096229153500e-04 +0.0000000000000000e+00 +9.9999997556381448e-01
-4.0000000000000018e+00 +8.1645465185377812e+00 +0.0000000000000000e+00 -3.9999999657258707e+00 +2.2673936341142110e-04 +0.0000000000000000e+00 +9.9999997429463017e-01
-4.1000000000000014e+00 +8.1645235611814542e+00 +0.0000000000000000e+00 -4.0999999630905357e+00 +2.3240776288644023e-04 +0.0000000000000000e+00 +9.9999997299331544e-01
-4.2000000000000011e+00 +8.1645000369852507e+00 +0.0000000000000000e+00 -4.1999999603234626e+00 +2.3807616097970465e-04 +0.0000000000000000e+00 +9.9999997165987031e-01
-4.3000000000000007e+00 +8.1644759459492970e+00 +0.0000000000000000e+00 -4.2999999574214387e+00 +2.4374455793381512e-04 +0.0000000000000000e+00 +9.9999997029429477e-01
-4.4000000000000004e+00 +8.1644512880736944e+00 +0.0000000000000000e+00 -4.3999999543812507e+00 +2.4941295396960277e-04 +0.0000000000000000e+00 +9.9999996889658871e-01
-4.5000000000000000e+00 +8.1644260633585262e+00 +0.0000000000000000e+00 -4.4999999511996851e+00 +2.5508134928612915e-04 +0.0000000000000000e+00 +9.9999996746675213e-01
-4.5999999999999996e+00 +8.1644002718038546e+00 +0.0000000000000000e+00 -4.5999999478735294e+00 +2.6074974406068633e-04 +0.0000000000000000e+00 +9.9999996600478491e-01
-4.6999999999999993e+00 +8.1643739134097260e+00 +0.0000000000000000e+00 -4.6999999443995710e+00 +2.6641813844879695e-04 +0.0000000000000000e+00 +9.9999996451068718e-01
-4.7999999999999989e+00 +8.1643469881761721e+00 +0.0000000000000000e+00 -4.7999999407745957e+00 +2.7208653258421419e-04 +0.0000000000000000e+00 +9.9999996298445881e-01
-4.8999999999999986e+00 +8.1643194961032126e+00 +0.0000000000000000e+00 -4.8999999369953917e+00 +2.7775492657892189e-04 +0.0000000000000000e+00 +9.9999996142609970e-01
-4.9999999999999982e+00 +8.1642914371908581e+00 +0.0000000000000000e+00 -4.9999999330587448e+00 +2.8342332052313466e-04 +0.0000000000000000e+00 +9.9999995983560996e-01
-5.0999999999999979e+00 +8.1642628114391087e+00 +0.0000000000000000e+00 -5.0999999289614424e+00 +2.8909171448529775e-04 +0.0000000000000000e+00 +9.9999995821298948e-01
-5.1999999999999975e+00 +8.1642336188479590e+00 +0.0000000000000000e+00 -5.1999999247002719e+00 +2.9476010851208726e-04 +0.0000000000000000e+00 +9.9999995655823837e-01
-5.2999999999999972e+00 +8.1642038594174036e+00 +0.0000000000000000e+00 -5.2999999202720192e+00 +3.0042850262841007e-04 +0.0000000000000000e+00 +9.9999995487135651e-01
-5.3999999999999968e+00 +8.1641735331474319e+00 +0.0000000000000000e+00 -5.3999999156734724e+00 +3.0609689683740388e-04 +0.0000000000000000e+00 +9.9999995315234391e-01
-5.4999999999999964e+00 +8.1641426400380350e+00 +0.0000000000000000e+00 -5.4999999109014173e+00 +3.1176529112043725e-04 +0.0000000000000000e+00 +9.9999995140120057e-01
-5.5999999999999961e+00 +8.1641111800892077e+00 +0.0000000000000000e+00 -5.5999999059526413e+00 +3.1743368543710963e-04 +0.0000000000000000e+00 +9.9999994961792649e-01
-5.6999999999999957e+00 +8.1640791533009498e+00 +0.0000000000000000e+00 -5.6999999008239310e+00 +3.2310207972525133e-04 +0.0000000000000000e+00 +9.9999994780252177e-01
-5.7999999999999954e+00 +8.1640465596732668e+00 +0.0000000000000000e+00 -5.7999998955120740e+00 +3.2877047390092359e-04 +0.0000000000000000e+00 +9.9999994595498642e-01
-5.8999999999999950e+00 +8.1640133992061763e+00 +0.0000000000000000e+00 -5.8999998900138575e+00 +3.3443886785841848e-04 +0.0000000000000000e+00 +9.9999994407532045e-01
-5.9999999999999947e+00 +8.1639796718997069e+00 +0.0000000000000000e+00 -5.9999998843260673e+00 +3.4010726147025910e-04 +0.0000000000000000e+00 +9.9999994216352384e-01
-6.0999999999999943e+00 +8.1639453777538993e+00 +0.0000000000000000e+00 -6.0999998784454910e+00 +3.4577565458871016e-04 +0.0000000000000000e+00 +9.9999994021959671e-01
-6.1999999999999940e+00 +8.1639105167688104e+00 +0.0000000000000000e+00 -6.1999998723689158e+00 +3.5144404706239718e-04 +0.0000000000000000e+00 +9.9999993824353917e-01
-6.2999999999999936e+00 +8.1638750889445131e+00 +0.0000000000000000e+00 -6.2999998660931285e+00 +3.5711243875292557e-04 +0.0000000000000000e+00 +9.9999993623535122e-01
-6.3999999999999932e+00 +8.1638390942810908e+00 +0.0000000000000000e+00 -6.3999998596149155e+00 +3.6278082953639096e-04 +0.0000000000000000e+00 +9.9999993419503286e-01
-6.4999999999999929e+00 +8.1638025327786394e+00 +0.0000000000000000e+00 -6.4999998529310643e+00 +3.6844921930337876e-04 +0.0000000000000000e+00 +9.9999993212258431e-01
-6.5999999999999925e+00 +8.1637654044372674e+00 +0.0000000000000000e+00 -6.5999998460383615e+00 +3.7411760795896392e-04 +0.0000000000000000e+00 +9.9999993001800547e-01
-6.6999999999999922e+00 +8.1637277092570883e+00 +0.0000000000000000e+00 -6.6999998389335946e+00 +3.7978599542271035e-04 +0.0000000000000000e+00 +9.9999992788129644e-01
-6.7999999999999918e+00 +8.1636894472382249e+00 +0.0000000000000000e+00 -6.7999998316135501e+00 +3.8545438162867059e-04 +0.0000000000000000e+00 +9.9999992571245733e-01
-6.8999999999999915e+00 +8.1636506183808066e+00 +0.0000000000000000e+00 -6.8999998240750156e+00 +3.9112276652538531e-04 +0.0000000000000000e+00 +9.9999992351148803e-01
-6.9999999999999911e+00 +8.1636112226849651e+00 +0.0000000000000000e+00 -6.9999998163147774e+00 +3.9679115007588273e-04 +0.0000000000000000e+00 +9.9999992127838877e-01
-7.0999999999999908e+00 +8.1635712601508370e+00 +0.0000000000000000e+00 -7.0999998083296223e+00 +4.0245953225767828e-04 +0.0000000000000000e+00 +9.9999991901315943e-01
-7.1999999999999904e+00 +8.1635307307785592e+00 +0.0000000000000000e+00 -7.1999998001163377e+00 +4.0812791306277393e-04 +0.0000000000000000e+00 +9.9999991671580013e-01
-7.2999999999999901e+00 +8.1634896345682701e+00 +0.0000000000000000e+00 -7.2999997916717110e+00 +4.1379629249765779e-04 +0.0000000000000000e+00 +9.9999991438631075e-01
-7.3999999999999897e+00 +8.1634479715201049e+00 +0.0000000000000000e+00 -7.3999997829925288e+00 +4.1946467058330349e-04 +0.0000000000000000e+00 +9.9999991202469141e-01
-7.4999999999999893e+00 +8.1634057416341967e+00 +0.0000000000000000e+00 -7.4999997740755786e+00 +4.2513304735516960e-04 +0.0000000000000000e+00 +9.9999990963094210e-01
-7.5999999999999890e+00 +8.1633629449106753e+00 +0.0000000000000000e+00 -7.5999997649176469e+00 +4.3080142286319902e-04 +0.0000000000000000e+00 +9.9999990720506293e-01
-7.6999999999999886e+00 +8.1633195813496631e+00 +0.0000000000000000e+00 -7.6999997555155204e+00 +4.3646979717181845e-04 +0.0000000000000000e+00 +9.9999990474705380e-01
-7.7999999999999883e+00 +8.1632756509512774e+00 +0.0000000000000000e+00 -7.7999997458659864e+00 +4.4213817035993771e-04 +0.0000000000000000e+00 +9.9999990225691460e-01
-7.8999999999999879e+00 +8.1632311537156248e+00 +0.0000000000000000e+00 -7.8999997359658325e+00 +4.4780654252094904e-04 +0.0000000000000000e+00 +9.9999989973464543e-01
-7.9999999999999876e+00 +8.1631860896428030e+00 +0.0000000000000000e+00 -7.9999997258118452e+00 +4.5347491376272655e-04 +0.0000000000000000e+00 +9.9999989718024618e-01
-8.0999999999999872e+00 +8.1631404587328991e+00 +0.0000000000000000e+00 -8.0999997154008110e+00 +4.5914328420681321e-04 +0.0000000000000000e+00 +9.9999989459371685e-01
-8.1999999999999869e+00 +8.1630942609859840e+00 +0.0000000000000000e+00 -8.1999997047295174e+00 +4.6481165397948589e-04 +0.0000000000000000e+00 +9.9999989197505745e-01
-8.2999999999999865e+00 +8.1630474964021200e+00 +0.0000000000000000e+00 -8.2999996937947511e+00 +4.7048002320282053e-04 +0.0000000000000000e+00 +9.9999988932426787e-01
-8.3999999999999861e+00 +8.1630001649813568e+00 +0.0000000000000000e+00 -8.3999996825933003e+00 +4.7614839199388041e-04 +0.0000000000000000e+00 +9.9999988664134809e-01
-8.4999999999999858e+00 +8.1629522667237318e+00 +0.0000000000000000e+00 -8.4999996711219499e+00 +4.8181676046471630e-04 +0.0000000000000000e+00 +9.9999988392629802e-01
-8.5999999999999854e+00 +8.1629038016292714e+00 +0.0000000000000000e+00 -8.5999996593774881e+00 +4.8748512872236671e-04 +0.0000000000000000e+00 +9.9999988117911764e-01
-8.6999999999999851e+00 +8.1628547696979918e+00 +0.0000000000000000e+00 -8.6999996473567016e+00 +4.9315349686885831e-04 +0.0000000000000000e+00 +9.9999987839980697e-01
-8.7999999999999847e+00 +8.1628051709298983e+00 +0.0000000000000000e+00 -8.7999996350563787e+00 +4.9882186500120628e-04 +0.0000000000000000e+00 +9.9999987558836589e-01
-8.8999999999999844e+00 +8.1627550053249891e+00 +0.0000000000000000e+00 -8.8999996224733042e+00 +5.0449023321141450e-04 +0.0000000000000000e+00 +9.9999987274479429e-01
-8.9999999999999840e+00 +8.1627042728832517e+00 +0.0000000000000000e+00 -8.9999996096042665e+00 +5.1015860158647609e-04 +0.0000000000000000e+00 +9.9999986986909228e-01
-9.0999999999999837e+00 +8.1626529736046649e+00 +0.0000000000000000e+00 -9.0999995964460521e+00 +5.1582697020837365e-04 +0.0000000000000000e+00 +9.9999986696125964e-01
-9.1999999999999833e+00 +8.1626011074892002e+00 +0.0000000000000000e+00 -9.1999995829954475e+00 +5.2149533915407957e-04 +0.0000000000000000e+00 +9.9999986402129648e-01
-9.2999999999999829e+00 +8.1625486745368221e+00 +0.0000000000000000e+00 -9.2999995692492394e+00 +5.2716370849555658e-04 +0.0000000000000000e+00 +9.9999986104920269e-01
-9.3999999999999826e+00 +8.1624956747474862e+00 +0.0000000000000000e+00 -9.3999995552042162e+00 +5.3283207829975818e-04 +0.0000000000000000e+00 +9.9999985804497826e-01
-9.4999999999999822e+00 +8.1624421081211445e+00 +0.0000000000000000e+00 -9.4999995408571642e+00 +5.3850044862862874e-04 +0.0000000000000000e+00 +9.9999985500862310e-01
-9.5999999999999819e+00 +8.1623879746577419e+00 +0.0000000000000000e+00 -9.5999995262048703e+00 +5.4416881953910415e-04 +0.0000000000000000e+00 +9.9999985194013719e-01
-9.6999999999999815e+00 +8.1623332743572163e+00 +0.0000000000000000e+00 -9.6999995112441209e+00 +5.4983719108311240e-04 +0.0000000000000000e+00 +9.9999984883952042e-01
-9.7999999999999812e+00 +8.1622780072195020e+00 +0.0000000000000000e+00 -9.7999994959717025e+00 +5.5550556330757374e-04 +0.0000000000000000e+00 +9.9999984570677281e-01
-9.8999999999999808e+00 +8.1622221732445297e+00 +0.0000000000000000e+00 -9.8999994803844036e+00 +5.6117393625440125e-04 +0.0000000000000000e+00 +9.9999984254189433e-01
-9.9999999999999805e+00 +8.1621657724322247e+00 +0.0000000000000000e+00 -9.9999994644790107e+00 +5.6684230996050140e-04 +0.0000000000000000e+00 +9.9999983934488501e-01
-1.0099999999999980e+01 +8.1621088047825108e+00 +0.0000000000000000e+00 -1.0099999448252310e+01 +5.7251068445819263e-04 +0.0000000000000000e+00 +9.9999983611574472e-01
-1.0199999999999980e+01 +8.1620512702953061e+00 +0.0000000000000000e+00 -1.0199999431701089e+01 +5.7817905977980628e-04 +0.0000000000000000e+00 +9.9999983285447347e-01
-1.0299999999999979e+01 +8.1619931689705272e+00 +0.0000000000000000e+00 -1.0299999414822134e+01 +5.8384743596228761e-04 +0.0000000000000000e+00 +9.9999982956107125e-01
-1.0399999999999979e+01 +8.1619345008080852e+00 +0.0000000000000000e+00 -1.0399999397612232e+01 +5.8951581304761381e-04 +0.0000000000000000e+00 +9.9999982623553796e-01
-1.0499999999999979e+01 +8.1618752658078861e+00 +0.0000000000000000e+00 -1.0499999380068171e+01 +5.9518419108279457e-04 +0.0000000000000000e+00 +9.9999982287787359e-01
-1.0599999999999978e+01 +8.1618154639698339e+00 +0.0000000000000000e+00 -1.0599999362186736e+01 +6.0085257011987180e-04 +0.0000000000000000e+00 +9.9999981948807815e-01
-1.0699999999999978e+01 +8.1617550952938256e+00 +0.0000000000000000e+00 -1.0699999343964715e+01 +6.0652095021592009e-04 +0.0000000000000000e+00 +9.9999981606615151e-01
-1.0799999999999978e+01 +8.1616941597797528e+00 +0.0000000000000000e+00 -1.0799999325398895e+01 +6.1218933143304677e-04 +0.0000000000000000e+00 +9.9999981261209359e-01
-1.0899999999999977e+01 +8.1616326574275000e+00 +0.0000000000000000e+00 -1.0899999306486063e+01 +6.1785771383839191e-04 +0.0000000000000000e+00 +9.9999980912590436e-01
-1.0999999999999977e+01 +8.1615705882369429e+00 +0.0000000000000000e+00 -1.0999999287223005e+01 +6.2352609750412869e-04 +0.0000000000000000e+00 +9.9999980560758384e-01
-1.1099999999999977e+01 +8.1615079522079537e+00 +0.0000000000000000e+00 -1.1099999267606508e+01 +6.2919448250746337e-04 +0.0000000000000000e+00 +9.9999980205713190e-01
-1.1199999999999976e+01 +8.1614447493403937e+00 +0.0000000000000000e+00 -1.1199999247633359e+01 +6.3486286893063549e-04 +0.0000000000000000e+00 +9.9999979847454845e-01
-1.1299999999999976e+01 +8.1613809796341172e+00 +0.0000000000000000e+00 -1.1299999227300345e+01 +6.4053125686091823e-04 +0.0000000000000000e+00 +9.9999979485983337e-01
-1.1399999999999975e+01 +8.1613166430889681e+00 +0.0000000000000000e+00 -1.1399999206604255e+01 +6.4619964639061830e-04 +0.0000000000000000e+00 +9.9999979121298666e-01
-1.1499999999999975e+01 +8.1612517397047828e+00 +0.0000000000000000e+00 -1.1499999185541872e+01 +6.5186803761707612e-04 +0.0000000000000000e+00 +9.9999978753400820e-01
-1.1599999999999975e+01 +8.1611862694813855e+00 +0.0000000000000000e+00 -1.1599999164109985e+01 +6.5753643064266618e-04 +0.0000000000000000e+00 +9.9999978382289778e-01
-1.1699999999999974e+01 +8.1611202324185914e+00 +0.0000000000000000e+00 -1.1699999142305380e+01 +6.6320482557479714e-04 +0.0000000000000000e+00 +9.9999978007965540e-01
