# field on trajectory
# s[mm] rx[mm] ry[mm] rz[mm] bx[T] by[T] bz[T]
0.0000000000000000e+00 +8.1529999999999987e+00 +0.0000000000000000e+00 +0.0000000000000000e+00 -3.0859781800029434e-02 -5.6465226814573422e-01 +5.6013750511072829e-03
1.0000000000000001e-01 +8.1529997169836914e+00 +0.0000000000000000e+00 +9.9999999999466030e-02 -3.0859893975201579e-02 -5.6465237439991922e-01 +5.6014050636938135e-03
2.0000000000000001e-01 +8.1529988679346932e+00 +0.0000000000000000e+00 +1.9999999999572809e-01 -3.0860022258451920e-02 -5.6465249820729158e-01 +5.6014374239165606e-03
3.0000000000000004e-01 +8.1529974528528815e+00 +0.0000000000000000e+00 +2.9999999998558230e-01 -3.0860165490482185e-02 -5.6465263793033471e-01 +5.6014721834844183e-03
4.0000000000000002e-01 +8.1529954717381177e+00 +0.0000000000000000e+00 +3.9999999996582469e-01 -3.0860322512013771e-02 -5.6465279193153128e-01 +5.6015093941072661e-03
5.0000000000000000e-01 +8.1529929245902455e+00 +0.0000000000000000e+00 +4.9999999993325139e-01 -3.0860492163785169e-02 -5.6465295857336417e-01 +5.6015491074958646e-03
5.9999999999999998e-01 +8.1529898114090980e+00 +0.0000000000000000e+00 +5.9999999988465835e-01 -3.0860673286549425e-02 -5.6465313621831426e-01 +5.6015913753617638e-03
6.9999999999999996e-01 +8.1529861321944992e+00 +0.0000000000000000e+00 +6.9999999981684180e-01 -3.0860864721071524e-02 -5.6465332322886108e-01 +5.6016362494171988e-03
7.9999999999999993e-01 +8.1529818869462609e+00 +0.0000000000000000e+00 +7.9999999972659763e-01 -3.0861065308125855e-02 -5.6465351796748176e-01 +5.6016837813750190e-03
8.9999999999999991e-01 +8.1529770756641877e+00 +0.0000000000000000e+00 +8.9999999961072197e-01 -3.0861273888493666e-02 -5.6465371879665072e-01 +5.6017340229485629e-03
9.9999999999999989e-01 +8.1529716983480789e+00 +0.0000000000000000e+00 +9.9999999946601081e-01 -3.0861489302960440e-02 -5.6465392407883819e-01 +5.6017870258515835e-03
1.0999999999999999e+00 +8.1529657549977301e+00 +0.0000000000000000e+00 +1.0999999992892602e+00 -3.0861710392313356e-02 -5.6465413217651139e-01 +5.6018428417981513e-03
1.2000000000000000e+00 +8.1529592456129318e+00 +0.0000000000000000e+00 +1.1999999990772663e+00 -3.0861935997338750e-02 -5.6465434145213278e-01 +5.6019015225025519e-03
1.3000000000000000e+00 +8.1529521701934744e+00 +0.0000000000000000e+00 +1.2999999988268249e+00 -3.0862164958819497e-02 -5.6465455026815892e-01 +5.6019631196792029e-03
1.4000000000000001e+00 +8.1529445287391500e+00 +0.0000000000000000e+00 +1.3999999985347322e+00 -3.0862396117532460e-02 -5.6465475698704193e-01 +5.6020276850425443e-03
1.5000000000000002e+00 +8.1529363212497508e+00 +0.0000000000000000e+00 +1.4999999981977843e+00 -3.0862628314245934e-02 -5.6465495997122717e-01 +5.6020952703069622e-03
1.6000000000000003e+00 +8.1529275477250742e+00 +0.0000000000000000e+00 +1.5999999978127770e+00 -3.0862860389717108e-02 -5.6465515758315343e-01 +5.6021659271866774e-03
1.7000000000000004e+00 +8.1529182081649214e+00 +0.0000000000000000e+00 +1.6999999973765065e+00 -3.0863091184689408e-02 -5.6465534818525198e-01 +5.6022397073956509e-03
1.8000000000000005e+00 +8.1529083025691023e+00 +0.0000000000000000e+00 +1.7999999968857689e+00 -3.0863319539890032e-02 -5.6465553013994685e-01 +5.6023166626475163e-03
1.9000000000000006e+00 +8.1528978309374356e+00 +0.0000000000000000e+00 +1.8999999963373602e+00 -3.0863544296027303e-02 -5.6465570180965374e-01 +5.6023968446554427e-03
2.0000000000000004e+00 +8.1528867932697491e+00 +0.0000000000000000e+00 +1.9999999957280761e+00 -3.0863764293788169e-02 -5.6465586155677905e-01 +5.6024803051320758e-03
2.1000000000000005e+00 +8.1528751895658846e+00 +0.0000000000000000e+00 +2.0999999950547128e+00 -3.0863978581095488e-02 -5.6465600818500006e-01 +5.6025670511156804e-03
2.2000000000000006e+00 +8.1528630198256931e+00 +0.0000000000000000e+00 +2.1999999943140662e+00 -3.0864187034889981e-02 -5.6465614226310779e-01 +5.6026569109493482e-03
2.3000000000000007e+00 +8.1528502840490429e+00 +0.0000000000000000e+00 +2.2999999935029325e+00 -3.0864389739356412e-02 -5.6465626480117193e-01 +5.6027496683031261e-03
2.4000000000000008e+00 +8.1528369822358098e+00 +0.0000000000000000e+00 +2.3999999926181079e+00 -3.0864586778663668e-02 -5.6465637680926051e-01 +5.6028451068479892e-03
2.5000000000000009e+00 +8.1528231143858818e+00 +0.0000000000000000e+00 +2.4999999916563880e+00 -3.0864778236963798e-02 -5.6465647929744267e-01 +5.6029430102559185e-03
2.6000000000000010e+00 +8.1528086804991577e+00 +0.0000000000000000e+00 +2.5999999906145690e+00 -3.0864964198391041e-02 -5.6465657327578633e-01 +5.6030431622000011e-03
2.7000000000000011e+00 +8.1527936805755434e+00 +0.0000000000000000e+00 +2.6999999894894469e+00 -3.0865144747060796e-02 -5.6465665975436075e-01 +5.6031453463545140e-03
2.8000000000000012e+00 +8.1527781146149518e+00 +0.0000000000000000e+00 +2.7999999882778179e+00 -3.0865319967068695e-02 -5.6465673974323705e-01 +5.6032493463950171e-03
2.9000000000000012e+00 +8.1527619826173030e+00 +0.0000000000000000e+00 +2.8999999869764777e+00 -3.0865489942489562e-02 -5.6465681425248748e-01 +5.6033549459984381e-03
3.0000000000000013e+00 +8.1527452845825241e+00 +0.0000000000000000e+00 +2.9999999855822224e+00 -3.0865654757376459e-02 -5.6465688429218686e-01 +5.6034619288431635e-03
3.1000000000000014e+00 +8.1527280205105441e+00 +0.0000000000000000e+00 +3.0999999840918480e+00 -3.0865814495759692e-02 -5.6465695087241252e-01 +5.6035700786091318e-03
3.2000000000000015e+00 +8.1527101904012973e+00 +0.0000000000000000e+00 +3.1999999825021503e+00 -3.0865969241645815e-02 -5.6465701500324494e-01 +5.6036791789779196e-03
3.3000000000000016e+00 +8.1526917942547197e+00 +0.0000000000000000e+00 +3.2999999808099258e+00 -3.0866119079016718e-02 -5.6465707769476903e-01 +5.6037890136328350e-03
3.4000000000000017e+00 +8.1526728320707491e+00 +0.0000000000000000e+00 +3.3999999790119704e+00 -3.0866264091828497e-02 -5.6465713995707323e-01 +5.6038993662589987e-03
3.5000000000000018e+00 +8.1526533038493234e+00 +0.0000000000000000e+00 +3.4999999771050798e+00 -3.0866404364010600e-02 -5.6465720280025133e-01 +5.6040100205434467e-03
3.6000000000000019e+00 +8.1526332095903804e+00 +0.0000000000000000e+00 +3.5999999750860501e+00 -3.0866539979464796e-02 -5.6465726723440202e-01 +5.6041207601752107e-03
3.7000000000000020e+00 +8.1526125492938561e+00 +0.0000000000000000e+00 +3.6999999729516775e+00 -3.0866671022064172e-02 -5.6465733426962950e-01 +5.6042313688454042e-03
3.8000000000000020e+00 +8.1525913229596831e+00 +0.0000000000000000e+00 +3.7999999706987575e+00 -3.0866797575652187e-02 -5.6465740491604532e-01 +5.6043416302473323e-03
3.9000000000000021e+00 +8.1525695305877921e+00 +0.0000000000000000e+00 +3.8999999683240865e+00 -3.0866919724041601e-02 -5.6465748018376694e-01 +5.6044513280765563e-03
4.0000000000000018e+00 +8.1525471721781084e+00 +0.0000000000000000e+00 +3.9999999658244607e+00 -3.0867037551013624e-02 -5.6465756108291898e-01 +5.6045602460310017e-03
4.1000000000000014e+00 +8.1525242477305504e+00 +0.0000000000000000e+00 +4.0999999631966757e+00 -3.0867151186910052e-02 -5.6465764841561805e-01 +5.6046682439547290e-03
4.2000000000000011e+00 +8.1525007572450328e+00 +0.0000000000000000e+00 +4.1999999604375278e+00 -3.0867260948436052e-02 -5.6465774215192344e-01 +5.6047754862682568e-03
4.3000000000000007e+00 +8.1524767007214614e+00 +0.0000000000000000e+00 +4.2999999575438128e+00 -3.0867367198922739e-02 -5.6465784205388680e-01 +5.6048822135353294e-03
4.4000000000000004e+00 +8.1524520781597367e+00 +0.0000000000000000e+00 +4.3999999545123263e+00 -3.0867470301742816e-02 -5.6465794788356805e-01 +5.6049886663186608e-03
4.5000000000000000e+00 +8.1524268895597540e+00 +0.0000000000000000e+00 +4.4999999513398645e+00 -3.0867570620313978e-02 -5.6465805940303626e-01 +5.6050950851798407e-03
4.5999999999999996e+00 +8.1524011349214014e+00 +0.0000000000000000e+00 +4.5999999480232239e+00 -3.0867668518102083e-02 -5.6465817637436966e-01 +5.6052017106791897e-03
4.6999999999999993e+00 +8.1523748142445633e+00 +0.0000000000000000e+00 +4.6999999445591998e+00 -3.0867764358624566e-02 -5.6465829855965755e-01 +5.6053087833756697e-03
4.7999999999999989e+00 +8.1523479275291191e+00 +0.0000000000000000e+00 +4.7999999409445886e+00 -3.0867858505453705e-02 -5.6465842572099856e-01 +5.6054165438267330e-03
4.8999999999999986e+00 +8.1523204747749407e+00 +0.0000000000000000e+00 +4.8999999371761866e+00 -3.0867951322219891e-02 -5.6465855762050299e-01 +5.6055252325882370e-03
4.9999999999999982e+00 +8.1522924559818968e+00 +0.0000000000000000e+00 +4.9999999332507894e+00 -3.0868043172614993e-02 -5.6465869402029278e-01 +5.6056350902142990e-03
5.0999999999999979e+00 +8.1522638711498523e+00 +0.0000000000000000e+00 +5.0999999291651923e+00 -3.0868134420395633e-02 -5.6465883468250122e-01 +5.6057463572571960e-03
5.1999999999999975e+00 +8.1522347202786669e+00 +0.0000000000000000e+00 +5.1999999249161926e+00 -3.0868225429386460e-02 -5.6465897936927412e-01 +5.6058592742672326e-03
5.2999999999999972e+00 +8.1522050033681968e+00 +0.0000000000000000e+00 +5.2999999205005848e+00 -3.0868316563483537e-02 -5.6465912784276995e-01 +5.6059740817926270e-03
5.3999999999999968e+00 +8.1521747204182926e+00 +0.0000000000000000e+00 +5.3999999159151661e+00 -3.0868408186657575e-02 -5.6465927986516062e-01 +5.6060910203794018e-03
5.4999999999999964e+00 +8.1521438714288035e+00 +0.0000000000000000e+00 +5.4999999111567321e+00 -3.0868500662957259e-02 -5.6465943519863260e-01 +5.6062103305712478e-03
5.5999999999999961e+00 +8.1521124563995766e+00 +0.0000000000000000e+00 +5.5999999062220782e+00 -3.0868594356512562e-02 -5.6465959360538498e-01 +5.6063322529094168e-03
5.6999999999999957e+00 +8.1520804753304521e+00 +0.0000000000000000e+00 +5.6999999011080007e+00 -3.0868689631538045e-02 -5.6465975484763187e-01 +5.6064570279326037e-03
5.7999999999999954e+00 +8.1520479282212701e+00 +0.0000000000000000e+00 +5.7999998958112950e+00 -3.0868786852336169e-02 -5.6465991868760390e-01 +5.6065848961768137e-03
5.8999999999999950e+00 +8.1520148150718672e+00 +0.0000000000000000e+00 +5.8999998903287585e+00 -3.0868886383300619e-02 -5.6466008488754582e-01 +5.6067160981752642e-03
5.9999999999999947e+00 +8.1519811358820782e+00 +0.0000000000000000e+00 +5.9999998846571856e+00 -3.0868988588919545e-02 -5.6466025320971835e-01 +5.6068508744582454e-03
6.0999999999999943e+00 +8.1519468906517361e+00 +0.0000000000000000e+00 +6.0999998787933727e+00 -3.0869093760204965e-02 -5.6466042346389234e-01 +5.6069893955216733e-03
6.1999999999999940e+00 +8.1519120793806703e+00 +0.0000000000000000e+00 +6.1999998727341161e+00 -3.0869201893919066e-02 -5.6466059564982118e-01 +5.6071315517321699e-03
6.2999999999999936e+00 +8.1518767020687104e+00 +0.0000000000000000e+00 +6.2999998664762114e+00 -3.0869312913202877e-02 -5.6466076981475855e-01 +5.6072771634217873e-03
6.3999999999999932e+00 +8.1518407587156823e+00 +0.0000000000000000e+00 +6.3999998600164547e+00 -3.0869426741134263e-02 -5.6466094600596350e-01 +5.6074260509197714e-03
6.4999999999999929e+00 +8.1518042493214100e+00 +0.0000000000000000e+00 +6.4999998533516417e+00 -3.0869543300724795e-02 -5.6466112427070103e-01 +5.6075780345524774e-03
6.5999999999999925e+00 +8.1517671738857160e+00 +0.0000000000000000e+00 +6.5999998464785685e+00 -3.0869662514916338e-02 -5.6466130465624220e-01 +5.6077329346432732e-03
6.6999999999999922e+00 +8.1517295324084209e+00 +0.0000000000000000e+00 +6.6999998393940308e+00 -3.0869784306577878e-02 -5.6466148720986353e-01 +5.6078905715124397e-03
6.7999999999999918e+00 +8.1516913248893434e+00 +0.0000000000000000e+00 +6.7999998320948247e+00 -3.0869908598502228e-02 -5.6466167197884731e-01 +5.6080507654770791e-03
6.8999999999999915e+00 +8.1516525513282989e+00 +0.0000000000000000e+00 +6.8999998245777459e+00 -3.0870035313402752e-02 -5.6466185901048205e-01 +5.6082133368510209e-03
6.9999999999999911e+00 +8.1516132117251008e+00 +0.0000000000000000e+00 +6.9999998168395905e+00 -3.0870164373910092e-02 -5.6466204835206180e-01 +5.6083781059447320e-03
7.0999999999999908e+00 +8.1515733060795625e+00 +0.0000000000000000e+00 +7.0999998088771541e+00 -3.0870295702568946e-02 -5.6466224005088717e-01 +5.6085448930652025e-03
7.1999999999999904e+00 +8.1515328343914906e+00 +0.0000000000000000e+00 +7.1999998006872330e+00 -3.0870429221834715e-02 -5.6466243415426287e-01 +5.6087135185158782e-03
7.2999999999999901e+00 +8.1514917966606930e+00 +0.0000000000000000e+00 +7.2999997922666227e+00 -3.0870564854070318e-02 -5.6466263070950140e-01 +5.6088838025965398e-03
7.3999999999999897e+00 +8.1514501928869745e+00 +0.0000000000000000e+00 +7.3999997836121185e+00 -3.0870702521542833e-02 -5.6466282976391990e-01 +5.6090555656032352e-03
7.4999999999999893e+00 +8.1514080230701360e+00 +0.0000000000000000e+00 +7.4999997747205178e+00 -3.0870842146420358e-02 -5.6466303136484153e-01 +5.6092286278281575e-03
7.5999999999999890e+00 +8.1513652872099769e+00 +0.0000000000000000e+00 +7.5999997655886151e+00 -3.0870983650768572e-02 -5.6466323555959541e-01 +5.6094028095595759e-03
7.6999999999999886e+00 +8.1513219853062946e+00 +0.0000000000000000e+00 +7.6999997562132068e+00 -3.0871126956547642e-02 -5.6466344239551702e-01 +5.6095779310817197e-03
7.7999999999999883e+00 +8.1512781173588831e+00 +0.0000000000000000e+00 +7.7999997465910891e+00 -3.0871271985608784e-02 -5.6466365191994616e-01 +5.6097538126747021e-03
7.8999999999999879e+00 +8.1512336833675327e+00 +0.0000000000000000e+00 +7.8999997367190575e+00 -3.0871418659691136e-02 -5.6466386418023018e-01 +5.6099302746144145e-03
7.9999999999999876e+00 +8.1511886833320322e+00 +0.0000000000000000e+00 +7.9999997265939076e+00 -3.0871566900418392e-02 -5.6466407922372130e-01 +5.6101071371724362e-03
8.0999999999999872e+00 +8.1511431172521682e+00 +0.0000000000000000e+00 +8.0999997162124355e+00 -3.0871716542089322e-02 -5.6466429717844135e-01 +5.6102842557024142e-03
8.1999999999999869e+00 +8.1510969851277224e+00 +0.0000000000000000e+00 +8.1999997055714378e+00 -3.0871867070111466e-02 -5.6466451849505861e-01 +5.6104616259041017e-03
8.2999999999999865e+00 +8.1510502869584762e+00 +0.0000000000000000e+00 +8.2999996946677079e+00 -3.0872017882722702e-02 -5.6466474370486852e-01 +5.6106392785696688e-03
8.3999999999999861e+00 +8.1510030227442041e+00 +0.0000000000000000e+00 +8.3999996834980433e+00 -3.0872168378215339e-02 -5.6466497333912347e-01 +5.6108172444977542e-03
8.4999999999999858e+00 +8.1509551924846768e+00 +0.0000000000000000e+00 +8.4999996720592410e+00 -3.0872317954938278e-02 -5.6466520792903063e-01 +5.6109955544936981e-03
8.5999999999999854e+00 +8.1509067961796617e+00 +0.0000000000000000e+00 +8.5999996603480948e+00 -3.0872466011299077e-02 -5.6466544800575136e-01 +5.6111742393697818e-03
8.6999999999999851e+00 +8.1508578338289208e+00 +0.0000000000000000e+00 +8.6999996483614019e+00 -3.0872611945766133e-02 -5.6466569410040068e-01 +5.6113533299454541e-03
8.7999999999999847e+00 +8.1508083054322071e+00 +0.0000000000000000e+00 +8.7999996360959578e+00 -3.0872755156870726e-02 -5.6466594674404269e-01 +5.6115328570475655e-03
8.8999999999999844e+00 +8.1507582109892684e+00 +0.0000000000000000e+00 +8.8999996235485579e+00 -3.0872895043209184e-02 -5.6466620646769250e-01 +5.6117128515106012e-03
8.9999999999999840e+00 +8.1507075504998472e+00 +0.0000000000000000e+00 +8.9999996107159976e+00 -3.0873031003444972e-02 -5.6466647380231338e-01 +5.6118933441769115e-03
9.0999999999999837e+00 +8.1506563239636769e+00 +0.0000000000000000e+00 +9.0999995975950725e+00 -3.0873162436310785e-02 -5.6466674927881455e-01 +5.6120743658969454e-03
9.1999999999999833e+00 +8.1506045313804822e+00 +0.0000000000000000e+00 +9.1999995841825797e+00 -3.0873288740610759e-02 -5.6466703342805102e-01 +5.6122559475294802e-03
9.2999999999999829e+00 +8.1505521727499808e+00 +0.0000000000000000e+00 +9.2999995704753147e+00 -3.0873409315222446e-02 -5.6466732678082221e-01 +5.6124381199418611e-03
9.3999999999999826e+00 +8.1504992480718794e+00 +0.0000000000000000e+00 +9.3999995564700729e+00 -3.0873523559099052e-02 -5.6466762986786878e-01 +5.6126209140102256e-03
9.4999999999999822e+00 +8.1504457573458762e+00 +0.0000000000000000e+00 +9.4999995421636498e+00 -3.0873630871271450e-02 -5.6466794321987301e-01 +5.6128043606197293e-03
9.5999999999999819e+00 +8.1503917005716602e+00 +0.0000000000000000e+00 +9.5999995275528409e+00 -3.0873730650850424e-02 -5.6466826736745712e-01 +5.6129884906648058e-03
9.6999999999999815e+00 +8.1503370777489064e+00 +0.0000000000000000e+00 +9.6999995126344416e+00 -3.0873822297028623e-02 -5.6466860284117981e-01 +5.6131733350493554e-03
9.7999999999999812e+00 +8.1502818888772808e+00 +0.0000000000000000e+00 +9.7999994974052491e+00 -3.0873905209082834e-02 -5.6466895017153862e-01 +5.6133589246870202e-03
9.8999999999999808e+00 +8.1502261339564370e+00 +0.0000000000000000e+00 +9.8999994818620589e+00 -3.0873978786375964e-02 -5.6466930988896458e-01 +5.6135452905013792e-03
9.9999999999999805e+00 +8.1501698129860145e+00 +0.0000000000000000e+00 +9.9999994660016664e+00 -3.0874042428359279e-02 -5.6466968252382321e-01 +5.6137324634262095e-03
1.0099999999999980e+01 +8.1501129259656437e+00 +0.0000000000000000e+00 +1.0099999449820865e+01 -3.0874095900183637e-02 -5.6467006832409150e-01 +5.6139204691515879e-03
1.0199999999999980e+01 +8.1500554728949393e+00 +0.0000000000000000e+00 +1.0199999433316453e+01 -3.0874140429518870e-02 -5.6467046640838447e-01 +5.6141093123571028e-03
1.0299999999999979e+01 +8.1499974537735032e+00 +0.0000000000000000e+00 +1.0299999416485226e+01 -3.0874177609656012e-02 -5.6467087561293960e-01 +5.6142989924668407e-03
1.0399999999999979e+01 +8.1499388686009286e+00 +0.0000000000000000e+00 +1.0399999399323979e+01 -3.0874209033877581e-02 -5.6467129477394806e-01 +5.6144895089025280e-03
1.0499999999999979e+01 +8.1498797173767965e+00 +0.0000000000000000e+00 +1.0499999381829507e+01 -3.0874236295457182e-02 -5.6467172272755195e-01 +5.6146808610834254e-03
1.0599999999999978e+01 +8.1498200001006804e+00 +0.0000000000000000e+00 +1.0599999363998608e+01 -3.0874260987659143e-02 -5.6467215830984585e-01 +5.6148730484262442e-03
1.0699999999999978e+01 +8.1497597167721452e+00 +0.0000000000000000e+00 +1.0699999345828074e+01 -3.0874284703738070e-02 -5.6467260035687383e-01 +5.6150660703450598e-03
1.0799999999999978e+01 +8.1496988673907484e+00 +0.0000000000000000e+00 +1.0799999327314703e+01 -3.0874309036938490e-02 -5.6467304770463145e-01 +5.6152599262512268e-03
1.0899999999999977e+01 +8.1496374519560462e+00 +0.0000000000000000e+00 +1.0899999308455289e+01 -3.0874335580494416e-02 -5.6467349918906085e-01 +5.6154546155532835e-03
1.0999999999999977e+01 +8.1495754704675853e+00 +0.0000000000000000e+00 +1.0999999289246629e+01 -3.0874365927628961e-02 -5.6467395364605377e-01 +5.6156501376568718e-03
1.1099999999999977e+01 +8.1495129229249148e+00 +0.0000000000000000e+00 +1.1099999269685519e+01 -3.0874401671553951e-02 -5.6467440991144824e-01 +5.6158464919646442e-03
1.1199999999999976e+01 +8.1494498093275780e+00 +0.0000000000000000e+00 +1.1199999249768753e+01 -3.0874444405469485e-02 -5.6467486682102885e-01 +5.6160436778761764e-03
1.1299999999999976e+01 +8.1493861296751202e+00 +0.0000000000000000e+00 +1.1299999229493126e+01 -3.0874495722563608e-02 -5.6467532321052571e-01 +5.6162416947878888e-03
1.1399999999999975e+01 +8.1493218839670849e+00 +0.0000000000000000e+00 +1.1399999208855435e+01 -3.0874557216011813e-02 -5.6467577791561374e-01 +5.6164405420929377e-03
1.1499999999999975e+01 +8.1492570722030191e+00 +0.0000000000000000e+00 +1.1499999187852476e+01 -3.0874630478976716e-02 -5.6467622977191068e-01 +5.6166402191811515e-03
1.1599999999999975e+01 +8.1491916943824716e+00 +0.0000000000000000e+00 +1.1599999166481043e+01 -3.0874717104607617e-02 -5.6467667761497786e-01 +5.6168407254389239e-03
1.1699999999999974e+01 +8.1491257505049948e+00 +0.0000000000000000e+00 +1.1699999144737932e+01 -3.0874818686040126e-02 -5.6467712028031847e-01 +5.6170420602491443e-03
1.1799999999999974e+01 +8.1490592405701481e+00 +0.0000000000000000e+00 +1.1799999122619939e+01 -3.0874936816395707e-02 -5.6467755660337726e-01 +5.6172442229910930e-03
