# multipoles
# s[mm] polynom_b[n=0][T/m^n] polynom_b[n=1][T/m^n] polynom_b[n=2][T/m^n] polynom_b[n=3][T/m^n] polynom_b[n=4][T/m^n] polynom_b[n=5][T/m^n] polynom_b[n=6][T/m^n] 
+0.0000000000000000e+00 -5.6465565044931054e-01 +7.7333366649073261e+00 -6.7914494100351375e-01 -6.8190715677555559e+01 +1.3953266904710965e+03 +7.9420589553530779e+04 -1.7029522188067619e+07 
+1.0000000000000001e-01 -5.6465569509597435e-01 +7.7333485059997749e+00 -6.7384534618274805e-01 -6.8434888354018341e+01 +1.2810733933333131e+03 +8.0613072510112979e+04 -1.6474103236869952e+07 
+2.0000000000000001e-01 -5.6465575358570763e-01 +7.7333588926151444e+00 -6.6741289699494177e-01 -6.8660639404144504e+01 +1.1496100360714127e+03 +8.1842631812320411e+04 -1.5850068080627114e+07 
+3.0000000000000004e-01 -5.6465582473558484e-01 +7.7333679172570617e+00 -6.5997266749276118e-01 -6.8868244141479494e+01 +1.0028848168809412e+03 +8.3097394487540718e+04 -1.5165224143155644e+07 
+4.0000000000000002e-01 -5.6465590736264892e-01 +7.7333756724269964e+00 -6.5164973571475893e-01 -6.9057977831185610e+01 +8.4284600381367841e+02 +8.4365487341021406e+04 -1.4427379166906090e+07 
+5.0000000000000000e-01 -5.6465600028397134e-01 +7.7333822506230687e+00 -6.4256917517298573e-01 -6.9230115649148914e+01 +6.7144177278902509e+02 +8.5635036703442238e+04 -1.3644340445905367e+07 
+5.9999999999999998e-01 -5.6465610231662411e-01 +7.7333877443355883e+00 -6.3285605951223944e-01 -6.9384932543495410e+01 +4.9062030089125767e+02 +8.6894167583540519e+04 -1.2823915277218599e+07 
+6.9999999999999996e-01 -5.6465621227764240e-01 +7.7333922460594131e+00 -6.2263546658406976e-01 -6.9522703593932533e+01 +3.0232983923624022e+02 +8.8131005749453790e+04 -1.1973911294757513e+07 
+7.9999999999999993e-01 -5.6465632898411089e-01 +7.7333958482863334e+00 -6.1203246786115073e-01 -6.9643703813439046e+01 +1.0851851697007338e+02 +8.9333676631598821e+04 -1.1102135551139466e+07 
+8.9999999999999991e-01 -5.6465645125306285e-01 +7.7333986435112774e+00 -6.0117214141625730e-01 -6.9748208293685110e+01 -8.8865411595105840e+01 +9.0490306061183408e+04 -1.0216395691845287e+07 
+9.9999999999999989e-01 -5.6465657790154988e-01 +7.7334007242267990e+00 -5.9017956319861498e-01 -6.9836492060837955e+01 -2.8787373173926920e+02 +9.1589019463388031e+04 -9.3244991732365470e+06 
+1.0999999999999999e+00 -5.6465670774663590e-01 +7.7334021829358504e+00 -5.7917980768969812e-01 -6.9908830457810780e+01 -4.8655825538594308e+02 +9.2617944102635476e+04 -8.4342533247267120e+06 
+1.2000000000000000e+00 -5.6465683960534052e-01 +7.7334031121369406e+00 -5.6829795530907934e-01 -6.9965498687100819e+01 -6.8297067739073054e+02 +9.3565206344519349e+04 -7.5534660394471232e+06 
+1.3000000000000000e+00 -5.6465697229473566e-01 +7.7334036043407224e+00 -5.5765908021282218e-01 -7.0006772312127765e+01 -8.7516280982412718e+02 +9.4418934611142337e+04 -6.6899446510463962e+06 
+1.4000000000000001e+00 -5.6465710463183083e-01 +7.7334037520606325e+00 -5.4738826503324722e-01 -7.0032926972057240e+01 -1.0611862965783353e+03 +9.5167257678918497e+04 -5.8514973045856822e+06 
+1.5000000000000002e+00 -5.6465723543367186e-01 +7.7334036478206905e+00 -5.3761058865681366e-01 -7.0044238622972557e+01 -1.2390928449072824e+03 +9.5798306106279895e+04 -5.0459318569394788e+06 
+1.6000000000000003e+00 -5.6465736351730467e-01 +7.7334033841497547e+00 -5.2845113035660196e-01 -7.0040983353525320e+01 -1.4069341491907076e+03 +9.6300211113759928e+04 -4.2810562304573739e+06 
+1.7000000000000004e+00 -5.6465748769973068e-01 +7.7334030535906342e+00 -5.2003497580936475e-01 -7.0023437661306872e+01 -1.5627617732392218e+03 +9.6661106206265657e+04 -3.5646789819320817e+06 
+1.8000000000000005e+00 -5.6465760679798771e-01 +7.7334027486921455e+00 -5.1248720735669751e-01 -6.9991878208085694e+01 -1.7046273320913567e+03 +9.6869125698152668e+04 -2.9046084443146549e+06 
+1.9000000000000006e+00 -5.6465771962908973e-01 +7.7334025620201245e+00 -5.0593291089603110e-01 -6.9946582159213804e+01 -1.8305823649184372e+03 +9.6912406736610516e+04 -2.3086533207977745e+06 
+2.0000000000000004e+00 -5.6465782501004491e-01 +7.7334025861487792e+00 -5.0049717476646971e-01 -6.9887826913932003e+01 -1.9386783487944697e+03 +9.6779087672769398e+04 -1.7846226361638217e+06 
+2.1000000000000005e+00 -5.6465792206672594e-01 +7.7334028922312763e+00 -4.9627016813185931e-01 -6.9816007726990321e+01 -2.0275167741920231e+03 +9.6461481491911807e+04 -1.3381169388428547e+06 
+2.2000000000000006e+00 -5.6465801116640590e-01 +7.7334034619178293e+00 -4.9320123994034998e-01 -6.9731981974979448e+01 -2.0979147799373764e+03 +9.5968900075218422e+04 -9.6587500068913342e+05 
+2.3000000000000007e+00 -5.6465809298824987e-01 +7.7334042535557783e+00 -4.9120423773390826e-01 -6.9636721663834933e+01 -2.1512474547389029e+03 +9.5314992437740177e+04 -6.6241282382948406e+05 
+2.4000000000000008e+00 -5.6465816821143910e-01 +7.7334052254849182e+00 -4.9019300670373428e-01 -6.9531198586516595e+01 -2.1888899332643246e+03 +9.4513406400452150e+04 -4.2224619136399322e+05 
+2.5000000000000009e+00 -5.6465823751514754e-01 +7.7334063360472252e+00 -4.9008139290714409e-01 -6.9416384595383192e+01 -2.2122173336534825e+03 +9.3577790160725592e+04 -2.3989096750043082e+05 
+2.6000000000000010e+00 -5.6465830157852837e-01 +7.7334075435799434e+00 -4.9078324388749600e-01 -6.9293251396459681e+01 -2.2226047518045798e+03 +9.2521791088183149e+04 -1.0986311160385297e+05 
+2.7000000000000011e+00 -5.6465836108077094e-01 +7.7334088064201447e+00 -4.9221240310781766e-01 -6.9162770697576548e+01 -2.2214273570370337e+03 +9.1359056638621521e+04 -2.6678250130552988e+04 
+2.8000000000000012e+00 -5.6465841670103045e-01 +7.7334100828933083e+00 -4.9428271709847743e-01 -6.9025913862936278e+01 -2.2100602693045435e+03 +9.0103232321589254e+04 +1.5147773967542335e+04 
+2.9000000000000012e+00 -5.6465846911848083e-01 +7.7334113313303883e+00 -4.9690803002842882e-01 -6.8883652411304382e+01 -2.1898786513511636e+03 +8.8767964606960057e+04 +2.1099307526801596e+04 
+3.0000000000000013e+00 -5.6465851901230413e-01 +7.7334125100508810e+00 -5.0000218384654027e-01 -6.8736957533448049e+01 -2.1622577166315377e+03 +8.7366898165658480e+04 -3.3390465905900155e+03 
+3.1000000000000014e+00 -5.6465856706165418e-01 +7.7334135773660755e+00 -5.0347902342551076e-01 -6.8586800171673289e+01 -2.1285726267396658e+03 +8.5913676289885960e+04 -5.2682931546115273e+04 
+3.2000000000000015e+00 -5.6465861394571870e-01 +7.7334144915858216e+00 -5.0725238893805902e-01 -6.8434151227289249e+01 -2.0901986358285244e+03 +8.4421942146442234e+04 -1.2144755106906097e+05 
+3.3000000000000016e+00 -5.6465866034366485e-01 +7.7334152110051422e+00 -5.1123612175270294e-01 -6.8279981162113373e+01 -2.0485109829707512e+03 +8.2905336442919797e+04 -2.0414817334860773e+05 
+3.4000000000000017e+00 -5.6465870693467468e-01 +7.7334156939220797e+00 -5.1534406087793294e-01 -6.8125260526644141e+01 -2.0048849572205875e+03 +8.1377500528955366e+04 -2.9529982502161863e+05 
+3.5000000000000018e+00 -5.6465875439791668e-01 +7.7334158986091293e+00 -5.1949004536828502e-01 -6.7970959124431758e+01 -1.9606958566672376e+03 +7.9852071544427206e+04 -3.8941747782918514e+05 
+3.6000000000000019e+00 -5.6465880341257835e-01 +7.7334157833448378e+00 -5.2358791138316874e-01 -6.7818046928731917e+01 -1.9173190383389890e+03 +7.8342687744474199e+04 -4.8101582678170659e+05 
+3.7000000000000020e+00 -5.6465885465784027e-01 +7.7334153063844857e+00 -5.2755149442932137e-01 -6.7667493236608919e+01 -1.8761298821692319e+03 +7.6862983607094735e+04 -5.6460944466393709e+05 
+3.8000000000000020e+00 -5.6465890881288450e-01 +7.7334144259793520e+00 -5.3129462876013944e-01 -6.7520267222773001e+01 -1.8385037997915763e+03 +7.5426593060498737e+04 -6.3471274811588170e+05 
+3.9000000000000021e+00 -5.6465896655690306e-01 +7.7334131003634683e+00 -5.3473114586406056e-01 -6.7377337549573198e+01 -1.8058162650608642e+03 +7.4047147196050035e+04 -6.8583985001516377e+05 
+4.0000000000000018e+00 -5.6465902856908978e-01 +7.7334112877625554e+00 -5.3777487578112271e-01 -6.7239672642472101e+01 -1.7794427890862612e+03 +7.2738275926412127e+04 -7.1250467738679703e+05 
+4.1000000000000014e+00 -5.6465909539945058e-01 +7.7334089650393008e+00 -5.4035795949168741e-01 -6.7108312711655017e+01 -1.7604627314880977e+03 +7.1512547360031182e+04 -7.1042618720469007e+05 
+4.2000000000000011e+00 -5.6465916707734631e-01 +7.7334061888152936e+00 -5.4248686445663930e-01 -6.6984613586398567e+01 -1.7487574492945075e+03 +7.0378049649462395e+04 -6.8017000198405457e+05 
+4.3000000000000007e+00 -5.6465924350092545e-01 +7.7334030369493609e+00 -5.4418692812954073e-01 -6.6870015660604679e+01 -1.7439052381483909e+03 +6.9341678833399958e+04 -6.2352043014363886e+05 
+4.4000000000000004e+00 -5.6465932456837742e-01 +7.7333995873032970e+00 -5.4548348338787478e-01 -6.6765959402778364e+01 -1.7454844787889917e+03 +6.8410331360945987e+04 -5.4226138211069547e+05 
+4.5000000000000000e+00 -5.6465941017786614e-01 +7.7333959177375382e+00 -5.4640186658882073e-01 -6.6673885258621809e+01 -1.7530734802866411e+03 +6.7590903613785151e+04 -4.3817713001584006e+05 
+4.5999999999999996e+00 -5.6465950022758427e-01 +7.7333921061149100e+00 -5.4696740979136693e-01 -6.6595233717288963e+01 -1.7662506404137989e+03 +6.6890292169521010e+04 -3.1305150754423771e+05 
+4.6999999999999993e+00 -5.6465959461574666e-01 +7.7333882302981163e+00 -5.4720544336414112e-01 -6.6531445297010720e+01 -1.7845943795900459e+03 +6.6315393885520563e+04 -1.6866827063046352e+05 
+4.7999999999999989e+00 -5.6465969324055088e-01 +7.7333843681533043e+00 -5.4714129957439339e-01 -6.6483960587881583e+01 -1.8076830833496492e+03 +6.5873105968968332e+04 -6.8113426165325900e+03 
+4.8999999999999986e+00 -5.6465979600023342e-01 +7.7333805975481047e+00 -5.4680030596902363e-01 -6.6454220236684947e+01 -1.8350952254047397e+03 +6.5570326002358226e+04 +1.7073576538267414e+05 
+4.9999999999999982e+00 -5.6465990279302958e-01 +7.7333769963517867e+00 -5.4620779042903977e-01 -6.6443664934494407e+01 -1.8664092721930976e+03 +6.5413951832753773e+04 +3.6218950140615541e+05 
+5.0999999999999979e+00 -5.6466001351719497e-01 +7.7333736424347910e+00 -5.4538907892359145e-01 -6.6453735406247461e+01 -1.9012037209120288e+03 +6.5410881506390368e+04 +5.6576644061561127e+05 
+5.1999999999999975e+00 -5.6466012807099542e-01 +7.7333706136699858e+00 -5.4436949602999518e-01 -6.6485872450144171e+01 -1.9390570961151495e+03 +6.5568013517328145e+04 +7.7968328737458913e+05 
+5.2999999999999972e+00 -5.6466024635269452e-01 +7.7333679879367176e+00 -5.4317436697539245e-01 -6.6541517054963364e+01 -1.9795479050443080e+03 +6.5892247474447970e+04 +1.0021566451651341e+06 
+5.3999999999999968e+00 -5.6466036826061095e-01 +7.7333658431102474e+00 -5.4182901055723065e-01 -6.6622110080494934e+01 -2.0222547761103858e+03 +6.6390482213831565e+04 +1.2314036890535953e+06 
+5.4999999999999964e+00 -5.6466049369304205e-01 +7.7333642570746592e+00 -5.4035874840041898e-01 -6.6729092655864392e+01 -2.0667562807699455e+03 +6.7069618173378898e+04 +1.4656413096292275e+06 
+5.5999999999999961e+00 -5.6466062254831773e-01 +7.7333633077142041e+00 -5.3878889865780422e-01 -6.6863905910886302e+01 -2.1126310525737322e+03 +6.7936555785637654e+04 +1.7030866795050118e+06 
+5.6999999999999957e+00 -5.6466075472477373e-01 +7.7333630729178315e+00 -5.3714477892609591e-01 -6.7027991110188097e+01 -2.1594577335852141e+03 +6.8998196262698242e+04 +1.9419570014278376e+06 
+5.7999999999999954e+00 -5.6466089012079168e-01 +7.7333636305763589e+00 -5.3545170168925416e-01 -6.7222789575781349e+01 -2.2068150576447219e+03 +7.0261441153804757e+04 +2.1804698973443126e+06 
+5.8999999999999950e+00 -5.6466102863474177e-01 +7.7333650585878377e+00 -5.3373498105217165e-01 -6.7449742841715548e+01 -2.2542817281245680e+03 +7.1733193244257491e+04 +2.4168428417072068e+06 
+5.9999999999999947e+00 -5.6466117016499540e-01 +7.7333674348469641e+00 -5.3201993148001103e-01 -6.7710292340046337e+01 -2.3014364343098109e+03 +7.3420354700862750e+04 +2.6492932166224332e+06 
+6.0999999999999943e+00 -5.6466131464934688e-01 +7.7333708370597494e+00 -5.3032987924396757e-01 -6.8005538351517785e+01 -2.3478864706352997e+03 +7.5326852843602770e+04 +2.8761589742688276e+06 
+6.1999999999999940e+00 -5.6466146217607616e-01 +7.7333753423742078e+00 -5.2868120406059782e-01 -6.8335210241067202e+01 -2.3933470269706959e+03 +7.7444638874947777e+04 +3.0962808597392719e+06 
+6.2999999999999936e+00 -5.6466161286941685e-01 +7.7333810278311814e+00 -5.2708878708575901e-01 -6.8698690161777151e+01 -2.4375589141723522e+03 +7.9762624723265719e+04 +3.3086319192292527e+06 
+6.3999999999999932e+00 -5.6466176685361202e-01 +7.7333879704727231e+00 -5.2556751034113014e-01 -6.9095360291237711e+01 -2.4802629147846628e+03 +8.2269722357609295e+04 +3.5121850559504917e+06 
+6.4999999999999929e+00 -5.6466192425290385e-01 +7.7333962473464002e+00 -5.2413225841872146e-01 -6.9524602991232570e+01 -2.5211997486231580e+03 +8.4954844825747321e+04 +3.7059128609906659e+06 
+6.5999999999999925e+00 -5.6466208519154537e-01 +7.7334059354968980e+00 -5.2279791655454744e-01 -6.9985800544429495e+01 -2.5601101105570392e+03 +8.7806904661375942e+04 +3.8887877966550514e+06 
+6.6999999999999922e+00 -5.6466224979381563e-01 +7.7334171119802457e+00 -5.2157936970762808e-01 -7.0478335579706581e+01 -2.5967346813638164e+03 +9.0814816380240547e+04 +4.0597822302465281e+06 
+6.7999999999999918e+00 -5.6466241818394547e-01 +7.7334298538518675e+00 -5.2049151072011579e-01 -7.1001590722593278e+01 -2.6308139815469071e+03 +9.3967494447040750e+04 +4.2178677652123310e+06 
+6.8999999999999915e+00 -5.6466259048626311e-01 +7.7334442381678681e+00 -5.1954922341529042e-01 -7.1554948625421105e+01 -2.6620886837699377e+03 +9.7253853429288953e+04 +4.3620167046379521e+06 
+6.9999999999999911e+00 -5.6466276682503858e-01 +7.7334603419938581e+00 -5.1876740143792233e-01 -7.2137792230402141e+01 -2.6902992584255871e+03 +1.0066280952831272e+05 +4.4912003746588025e+06 
+7.0999999999999908e+00 -5.6466294732454136e-01 +7.7334782423957709e+00 -5.1816094091919385e-01 -7.2749504512564712e+01 -2.7151861140184801e+03 +1.0418327912289134e+05 +4.6043897973582670e+06 
+7.1999999999999904e+00 -5.6466313210910957e-01 +7.7334980164433995e+00 -5.1774473284786826e-01 -7.3389468567537236e+01 -2.7364897359027477e+03 +1.0780417922364220e+05 +4.7005563345958674e+06 
+7.2999999999999901e+00 -5.6466332130303509e-01 +7.7335197412119570e+00 -5.1753367655369797e-01 -7.4057067662220078e+01 -2.7539504360612937e+03 +1.1151442779009433e+05 +4.7786705146949571e+06 
+7.3999999999999897e+00 -5.6466351503063950e-01 +7.7335434937796679e+00 -5.1754267075804994e-01 -7.4751685167703968e+01 -2.7673085173400423e+03 +1.1530294333308909e+05 +4.8377027976715602e+06 
+7.4999999999999893e+00 -5.6466371341625798e-01 +7.7335693512302095e+00 -5.1778661585203933e-01 -7.5472704630029355e+01 -2.7763042313268788e+03 +1.1915864533099328e+05 +4.8766233818801641e+06 
+7.5999999999999890e+00 -5.6466391658423665e-01 +7.7335973906511404e+00 -5.1828041370139633e-01 -7.6219509724644126e+01 -2.7806777855441055e+03 +1.2307045395752935e+05 +4.8944022463207422e+06 
+7.6999999999999886e+00 -5.6466412465890159e-01 +7.7336276891309215e+00 -5.1903897233229779e-01 -7.6991484167459504e+01 -2.7801692464461589e+03 +1.2702728955837434e+05 +4.8900086702451464e+06 
+7.7999999999999883e+00 -5.6466433776461444e-01 +7.7336603237700512e+00 -5.2007719823182230e-01 -7.7788012050542790e+01 -2.7745186939294395e+03 +1.3101807462922965e+05 +4.8624119895733008e+06 
+7.8999999999999879e+00 -5.6466455602575372e-01 +7.7336953716676096e+00 -5.2140999993407178e-01 -7.8608477431345307e+01 -2.7634661418850596e+03 +1.3503173136936573e+05 +4.8105811911669346e+06 
+7.9999999999999876e+00 -5.6466477956666306e-01 +7.7337329099313079e+00 -5.2305229335366898e-01 -7.9452264653548070e+01 -2.7467514492897367e+03 +1.3905718366916283e+05 +4.7334845291369921e+06 
+8.0999999999999872e+00 -5.6466500854584545e-01 +7.7337729568439153e+00 -5.2501109322742157e-01 -8.0318094094493759e+01 -2.7242447411865764e+03 +1.4308254319261343e+05 +4.6306510803888403e+06 
+8.1999999999999869e+00 -5.6466524326627421e-01 +7.7338152889489225e+00 -5.2725744006421438e-01 -8.1201981940961502e+01 -2.6963966409571053e+03 +1.4709261336508713e+05 +4.5040121145412037e+06 
+8.2999999999999865e+00 -5.6466548406917416e-01 +7.7338596206203256e+00 -5.2975224154596789e-01 -8.2099262152388434e+01 -2.6638183732851735e+03 +1.5107142625300188e+05 +4.3561413651731098e+06 
+8.3999999999999861e+00 -5.6466573129570430e-01 +7.7339056662201848e+00 -5.3245641100985330e-01 -8.3005268401296945e+01 -2.6271210807107627e+03 +1.5500301244415028e+05 +4.1896122286590468e+06 
+8.4999999999999858e+00 -5.6466598528701095e-01 +7.7339531401007919e+00 -5.3533085954838444e-01 -8.3915334080965110e+01 -2.5869159817842196e+03 +1.5887140091098138e+05 +4.0069985372149488e+06 
+8.5999999999999854e+00 -5.6466624638415841e-01 +7.7340017566063164e+00 -5.3833650518332354e-01 -8.4824792391970135e+01 -2.5438141952497881e+03 +1.6266061961530545e+05 +3.8108737208617325e+06 
+8.6999999999999851e+00 -5.6466651492818110e-01 +7.7340512300696593e+00 -5.4143426591205079e-01 -8.5728976220117687e+01 -2.4984268748103173e+03 +1.6635469472504436e+05 +3.6038114533946947e+06 
+8.7999999999999847e+00 -5.6466679126004238e-01 +7.7341012748129030e+00 -5.4458506485485403e-01 -8.6623218165774077e+01 -2.4513651132365126e+03 +1.6993765082456649e+05 +3.3883852031839420e+06 
+8.8999999999999844e+00 -5.6466707572066333e-01 +7.7341516051482522e+00 -5.4774982652348581e-01 -8.7502850565126494e+01 -2.4032400116431008e+03 +1.7339351101723503e+05 +3.1671685543087111e+06 
+8.9999999999999840e+00 -5.6466736865090172e-01 +7.7342019353757090e+00 -5.5088947943718281e-01 -8.8363205435417726e+01 -2.3546626318552940e+03 +1.7670629665076133e+05 +2.9427349873921145e+06 
+9.0999999999999837e+00 -5.6466767039155785e-01 +7.7342519797822442e+00 -5.5396495489990349e-01 -8.9199614424525407e+01 -2.3062440238765971e+03 +1.7986002694709811e+05 +2.7176580213255859e+06 
+9.1999999999999833e+00 -5.6466798128338158e-01 +7.7343014526471183e+00 -5.5693718629871214e-01 -9.0007409000839729e+01 -2.2585952356921425e+03 +1.8283872020464003e+05 +2.4945112469733455e+06 
+9.2999999999999829e+00 -5.6466830166705473e-01 +7.7343500682333364e+00 -5.5976711142046609e-01 -9.0781920179648054e+01 -2.2123272724002481e+03 +1.8562639213812043e+05 +2.2758681447790223e+06 
+9.3999999999999826e+00 -5.6466863188318339e-01 +7.7343975407935108e+00 -5.6241567254794922e-01 -9.1518478705831242e+01 -2.1680510970506430e+03 +1.8820705696995682e+05 +2.0643020913784390e+06 
+9.4999999999999822e+00 -5.6466897227234236e-01 +7.7344435845676767e+00 -5.6484381124747585e-01 -9.2212414985890447e+01 -2.1263777289869440e+03 +1.9056472703571533e+05 +1.8623868267668129e+06 
+9.5999999999999819e+00 -5.6466932317501517e-01 +7.7344879137811100e+00 -5.6701247646512243e-01 -9.2859059022727436e+01 -2.0879180873319647e+03 +1.9268341238456976e+05 +1.6726957033206197e+06 
+9.6999999999999815e+00 -5.6466968493161718e-01 +7.7345302426488560e+00 -5.6888261990142830e-01 -9.3453740561076060e+01 -2.0532830883674478e+03 +1.9454712167573074e+05 +1.4978021702784451e+06 
+9.7999999999999812e+00 -5.6467005788251845e-01 +7.7345702853674796e+00 -5.7041519416446296e-01 -9.3991788830535612e+01 -2.0230836761345047e+03 +1.9613986062786067e+05 +1.3402799104226315e+06 
+9.8999999999999808e+00 -5.6467044236799502e-01 +7.7346077561252082e+00 -5.7157115869047592e-01 -9.4468532856528384e+01 -1.9979307109450822e+03 +1.9744563387827293e+05 +1.2027023092298098e+06 
+9.9999999999999805e+00 -5.6467083872824797e-01 +7.7346423690896584e+00 -5.7231147671742155e-01 -9.4879301084658849e+01 -1.9784350307814518e+03 +1.9844844266123659e+05 +1.0876427509505874e+06 
+1.0099999999999980e+01 -5.6467124706086225e-01 +7.7346738679809182e+00 -5.7261157896481896e-01 -9.5219970024192733e+01 -1.9650099841434028e+03 +1.9913396022949889e+05 +9.9690567484076135e+05 
