# field on trajectory
# s[mm] rx[mm] ry[mm] rz[mm] bx[T] by[T] bz[T]
0.0000000000000000e+00 +7.9199999999999999e+00 +0.0000000000000000e+00 +0.0000000000000000e+00 -2.9154756819029747e-02 -5.3808840358283561e-01 +5.3120735996903838e-03
-1.0000000000000001e-01 +7.9199997171899259e+00 +0.0000000000000000e+00 -9.9999999999466793e-02 -2.9154771978335756e-02 -5.3808856581930842e-01 +5.3120877489877469e-03
-2.0000000000000001e-01 +7.9199988687595884e+00 +0.0000000000000000e+00 -1.9999999999573431e-01 -2.9154794416806899e-02 -5.3808874091109626e-01 +5.3121039658326364e-03
-3.0000000000000004e-01 +7.9199974547088026e+00 +0.0000000000000000e+00 -2.9999999998560334e-01 -2.9154822867950625e-02 -5.3808892816420695e-01 +5.3121221056021111e-03
-4.0000000000000002e-01 +7.9199954750373722e+00 +0.0000000000000000e+00 -3.9999999996587454e-01 -2.9154856065277589e-02 -5.3808912688464383e-01 +5.3121420236736262e-03
-5.0000000000000000e-01 +7.9199929297450886e+00 +0.0000000000000000e+00 -4.9999999993334865e-01 -2.9154892742302735e-02 -5.3808933637840772e-01 +5.3121635754249047e-03
-5.9999999999999998e-01 +7.9199898188317315e+00 +0.0000000000000000e+00 -5.9999999988482644e-01 -2.9154931632546205e-02 -5.3808955595149510e-01 +5.3121866162337741e-03
-6.9999999999999996e-01 +7.9199861422970699e+00 +0.0000000000000000e+00 -6.9999999981710859e-01 -2.9154971469534278e-02 -5.3808978490989767e-01 +5.3122110014780215e-03
-7.9999999999999993e-01 +7.9199819001408640e+00 +0.0000000000000000e+00 -7.9999999972699587e-01 -2.9155010986800435e-02 -5.3809002255960348e-01 +5.3122365865352619e-03
-8.9999999999999991e-01 +7.9199770923628643e+00 +0.0000000000000000e+00 -8.9999999961128896e-01 -2.9155048917886225e-02 -5.3809026820659522e-01 +5.3122632267827681e-03
-9.9999999999999989e-01 +7.9199717189628123e+00 +0.0000000000000000e+00 -9.9999999946678853e-01 -2.9155083996342299e-02 -5.3809052115685096e-01 +5.3122907775973354e-03
-1.0999999999999999e+00 +7.9199657799404424e+00 +0.0000000000000000e+00 -1.0999999992902953e+00 -2.9155114955729342e-02 -5.3809078071634320e-01 +5.3123190943551333e-03
-1.2000000000000000e+00 +7.9199592752954819e+00 +0.0000000000000000e+00 -1.1999999990786101e+00 -2.9155140529619081e-02 -5.3809104619103909e-01 +5.3123480324315589e-03
-1.3000000000000000e+00 +7.9199522050276521e+00 +0.0000000000000000e+00 -1.2999999988285333e+00 -2.9155159451595209e-02 -5.3809131688690048e-01 +5.3123774472010861e-03
-1.4000000000000001e+00 +7.9199445691366686e+00 +0.0000000000000000e+00 -1.3999999985368659e+00 -2.9155170455254370e-02 -5.3809159210988178e-01 +5.3124071940371161e-03
-1.5000000000000002e+00 +7.9199363676222427e+00 +0.0000000000000000e+00 -1.4999999982004084e+00 -2.9155172274207157e-02 -5.3809187116593238e-01 +5.3124371283118357e-03
-1.6000000000000003e+00 +7.9199276004840815e+00 +0.0000000000000000e+00 -1.5999999978159616e+00 -2.9155163642079027e-02 -5.3809215336099436e-01 +5.3124671053960681e-03
-1.7000000000000004e+00 +7.9199182677218882e+00 +0.0000000000000000e+00 -1.6999999973803259e+00 -2.9155143292511326e-02 -5.3809243800100337e-01 +5.3124969806591241e-03
-1.8000000000000005e+00 +7.9199083693353645e+00 +0.0000000000000000e+00 -1.7999999968903024e+00 -2.9155109959162196e-02 -5.3809272439188760e-01 +5.3125266094686549e-03
-1.9000000000000006e+00 +7.9198979053242100e+00 +0.0000000000000000e+00 -1.8999999963426915e+00 -2.9155062375707634e-02 -5.3809301183956804e-01 +5.3125558471905027e-03
-2.0000000000000004e+00 +7.9198868756881220e+00 +0.0000000000000000e+00 -1.9999999957342938e+00 -2.9154999275842360e-02 -5.3809329964995778e-01 +5.3125845491885587e-03
-2.1000000000000005e+00 +7.9198752804267993e+00 +0.0000000000000000e+00 -2.0999999950619102e+00 -2.9154919879271487e-02 -5.3809358718235167e-01 +5.3126126242374824e-03
-2.2000000000000006e+00 +7.9198631195399392e+00 +0.0000000000000000e+00 -2.1999999943223409e+00 -2.9154825349674104e-02 -5.3809387400959641e-01 +5.3126401947622788e-03
-2.3000000000000007e+00 +7.9198503930272413e+00 +0.0000000000000000e+00 -2.2999999935123872e+00 -2.9154717336714164e-02 -5.3809415975792851e-01 +5.3126674366015857e-03
-2.4000000000000008e+00 +7.9198371008884054e+00 +0.0000000000000000e+00 -2.3999999926288491e+00 -2.9154597490045148e-02 -5.3809444405358620e-01 +5.3126945255952632e-03
-2.5000000000000009e+00 +7.9198232431231332e+00 +0.0000000000000000e+00 -2.4999999916685276e+00 -2.9154467459307783e-02 -5.3809472652280954e-01 +5.3127216375846373e-03
-2.6000000000000010e+00 +7.9198088197311280e+00 +0.0000000000000000e+00 -2.5999999906282230e+00 -2.9154328894127654e-02 -5.3809500679184241e-01 +5.3127489484127094e-03
-2.7000000000000011e+00 +7.9197938307120959e+00 +0.0000000000000000e+00 -2.6999999895047364e+00 -2.9154183444112913e-02 -5.3809528448693289e-01 +5.3127766339244129e-03
-2.8000000000000012e+00 +7.9197782760657454e+00 +0.0000000000000000e+00 -2.7999999882948678e+00 -2.9154032758851860e-02 -5.3809555923433339e-01 +5.3128048699668147e-03
-2.9000000000000012e+00 +7.9197621557917879e+00 +0.0000000000000000e+00 -2.8999999869954185e+00 -2.9153878487910685e-02 -5.3809583066030209e-01 +5.3128338323893643e-03
-3.0000000000000013e+00 +7.9197454698899392e+00 +0.0000000000000000e+00 -2.9999999856031887e+00 -2.9153722280831088e-02 -5.3809609839110351e-01 +5.3128636970441187e-03
-3.1000000000000014e+00 +7.9197282183599178e+00 +0.0000000000000000e+00 -3.0999999841149788e+00 -2.9153565787127914e-02 -5.3809636205300915e-01 +5.3128946397859624e-03
-3.2000000000000015e+00 +7.9197104012014474e+00 +0.0000000000000000e+00 -3.1999999825275900e+00 -2.9153410656286845e-02 -5.3809662127229896e-01 +5.3129268364728571e-03
-3.3000000000000016e+00 +7.9196920184142563e+00 +0.0000000000000000e+00 -3.2999999808378222e+00 -2.9153258537762083e-02 -5.3809687567526077e-01 +5.3129604629660503e-03
-3.4000000000000017e+00 +7.9196730699980780e+00 +0.0000000000000000e+00 -3.3999999790424766e+00 -2.9153111080973907e-02 -5.3809712488819239e-01 +5.3129956951303153e-03
-3.5000000000000018e+00 +7.9196535559526513e+00 +0.0000000000000000e+00 -3.4999999771383536e+00 -2.9152969935306437e-02 -5.3809736853740198e-01 +5.3130327088341828e-03
-3.6000000000000019e+00 +7.9196334762777196e+00 +0.0000000000000000e+00 -3.5999999751222536e+00 -2.9152836750105233e-02 -5.3809760624920822e-01 +5.3130716799501656e-03
-3.7000000000000020e+00 +7.9196128309730351e+00 +0.0000000000000000e+00 -3.6999999729909772e+00 -2.9152713174674959e-02 -5.3809783764994212e-01 +5.3131127843549890e-03
-3.8000000000000020e+00 +7.9195916200383545e+00 +0.0000000000000000e+00 -3.7999999707413252e+00 -2.9152600858277058e-02 -5.3809806236594704e-01 +5.3131561979298221e-03
-3.9000000000000021e+00 +7.9195698434734423e+00 +0.0000000000000000e+00 -3.8999999683700981e+00 -2.9152501450127346e-02 -5.3809828002357951e-01 +5.3132020965605022e-03
-4.0000000000000018e+00 +7.9195475012780703e+00 +0.0000000000000000e+00 -3.9999999658740961e+00 -2.9152416599393747e-02 -5.3809849024921030e-01 +5.3132506561377746e-03
-4.1000000000000014e+00 +7.9195245934520182e+00 +0.0000000000000000e+00 -4.0999999632501201e+00 -2.9152347480056084e-02 -5.3809869283306366e-01 +5.3133020252394058e-03
-4.2000000000000011e+00 +7.9195011199950738e+00 +0.0000000000000000e+00 -4.1999999604949707e+00 -2.9152293365507852e-02 -5.3809888822073260e-01 +5.3133562431733694e-03
-4.3000000000000007e+00 +7.9194770809070327e+00 +0.0000000000000000e+00 -4.2999999576054488e+00 -2.9152253054004307e-02 -5.3809907702166582e-01 +5.3134133219276585e-03
-4.4000000000000004e+00 +7.9194524761876970e+00 +0.0000000000000000e+00 -4.3999999545783544e+00 -2.9152225343807164e-02 -5.3809925984533058e-01 +5.3134732734875737e-03
-4.5000000000000000e+00 +7.9194273058368756e+00 +0.0000000000000000e+00 -4.4999999514104880e+00 -2.9152209033185793e-02 -5.3809943730121312e-01 +5.3135361098354851e-03
-4.5999999999999996e+00 +7.9194015698543820e+00 +0.0000000000000000e+00 -4.5999999480986506e+00 -2.9152202920418424e-02 -5.3809960999881878e-01 +5.3136018429505725e-03
-4.6999999999999993e+00 +7.9193752682400360e+00 +0.0000000000000000e+00 -4.6999999446396430e+00 -2.9152205803793324e-02 -5.3809977854767410e-01 +5.3136704848085982e-03
-4.7999999999999989e+00 +7.9193484009936617e+00 +0.0000000000000000e+00 -4.7999999410302649e+00 -2.9152216481610076e-02 -5.3809994355732715e-01 +5.3137420473816583e-03
-4.8999999999999986e+00 +7.9193209681150858e+00 +0.0000000000000000e+00 -4.8999999372673173e+00 -2.9152233752180678e-02 -5.3810010563734811e-01 +5.3138165426379414e-03
-4.9999999999999982e+00 +7.9192929696041388e+00 +0.0000000000000000e+00 -4.9999999333476008e+00 -2.9152256413830829e-02 -5.3810026539733025e-01 +5.3138939825414745e-03
-5.0999999999999979e+00 +7.9192644054606536e+00 +0.0000000000000000e+00 -5.0999999292679163e+00 -2.9152283264901092e-02 -5.3810042344689091e-01 +5.3139743790518957e-03
-5.1999999999999975e+00 +7.9192352756844642e+00 +0.0000000000000000e+00 -5.1999999250250637e+00 -2.9152313103748082e-02 -5.3810058039567210e-01 +5.3140577441241959e-03
-5.2999999999999972e+00 +7.9192055802754080e+00 +0.0000000000000000e+00 -5.2999999206158437e+00 -2.9152344728745762e-02 -5.3810073685334181e-01 +5.3141440897084939e-03
-5.3999999999999968e+00 +7.9191753192333199e+00 +0.0000000000000000e+00 -5.3999999160370571e+00 -2.9152376938286487e-02 -5.3810089342959411e-01 +5.3142334277497616e-03
-5.4999999999999964e+00 +7.9191444925580372e+00 +0.0000000000000000e+00 -5.4999999112855038e+00 -2.9152408530782367e-02 -5.3810105073415071e-01 +5.3143257701876168e-03
-5.5999999999999961e+00 +7.9191131002493957e+00 +0.0000000000000000e+00 -5.5999999063579855e+00 -2.9152438304666378e-02 -5.3810120937676087e-01 +5.3144211289560574e-03
-5.6999999999999957e+00 +7.9190811423072285e+00 +0.0000000000000000e+00 -5.6999999012513021e+00 -2.9152465058393626e-02 -5.3810136996720370e-01 +5.3145195159832181e-03
-5.7999999999999954e+00 +7.9190486187313684e+00 +0.0000000000000000e+00 -5.7999998959622534e+00 -2.9152487590442467e-02 -5.3810153311528763e-01 +5.3146209431911380e-03
-5.8999999999999950e+00 +7.9190155295216451e+00 +0.0000000000000000e+00 -5.8999998904876412e+00 -2.9152504699315830e-02 -5.3810169943085162e-01 +5.3147254224955040e-03
-5.9999999999999947e+00 +7.9189818746778844e+00 +0.0000000000000000e+00 -5.9999998848242653e+00 -2.9152515183542324e-02 -5.3810186952376637e-01 +5.3148329658054185e-03
-6.0999999999999943e+00 +7.9189476541999086e+00 +0.0000000000000000e+00 -6.0999998789689265e+00 -2.9152518114390746e-02 -5.3810204394788608e-01 +5.3149435667209808e-03
-6.1999999999999940e+00 +7.9189128680875358e+00 +0.0000000000000000e+00 -6.1999998729184247e+00 -2.9152513654000702e-02 -5.3810222303288557e-01 +5.3150571456293972e-03
-6.2999999999999936e+00 +7.9188775163405785e+00 +0.0000000000000000e+00 -6.2999998666695607e+00 -2.9152502237216885e-02 -5.3810240705237300e-01 +5.3151736046170295e-03
-6.3999999999999932e+00 +7.9188415989588448e+00 +0.0000000000000000e+00 -6.3999998602191353e+00 -2.9152484298870015e-02 -5.3810259627993562e-01 +5.3152928457725814e-03
-6.4999999999999929e+00 +7.9188051159421367e+00 +0.0000000000000000e+00 -6.4999998535639492e+00 -2.9152460273776295e-02 -5.3810279098913549e-01 +5.3154147711872357e-03
-6.5999999999999925e+00 +7.9187680672902498e+00 +0.0000000000000000e+00 -6.5999998467008023e+00 -2.9152430596736958e-02 -5.3810299145351026e-01 +5.3155392829547995e-03
-6.6999999999999922e+00 +7.9187304530029756e+00 +0.0000000000000000e+00 -6.6999998396264955e+00 -2.9152395702537710e-02 -5.3810319794657158e-01 +5.3156662831718429e-03
-6.7999999999999918e+00 +7.9186922730800982e+00 +0.0000000000000000e+00 -6.7999998323378295e+00 -2.9152356025948269e-02 -5.3810341074180246e-01 +5.3157956739378264e-03
-6.8999999999999915e+00 +7.9186535275213945e+00 +0.0000000000000000e+00 -6.8999998248316041e+00 -2.9152312001721799e-02 -5.3810363011265694e-01 +5.3159273573552459e-03
-6.9999999999999911e+00 +7.9186142163266355e+00 +0.0000000000000000e+00 -6.9999998171046203e+00 -2.9152264064594466e-02 -5.3810385633255897e-01 +5.3160612355297749e-03
-7.0999999999999908e+00 +7.9185743394955850e+00 +0.0000000000000000e+00 -7.0999998091536787e+00 -2.9152212649284869e-02 -5.3810408967489987e-01 +5.3161972105703961e-03
-7.1999999999999904e+00 +7.9185338970279977e+00 +0.0000000000000000e+00 -7.1999998009755792e+00 -2.9152158190493584e-02 -5.3810433041303796e-01 +5.3163351845895374e-03
-7.2999999999999901e+00 +7.9184928889236232e+00 +0.0000000000000000e+00 -7.2999997925671227e+00 -2.9152101122902615e-02 -5.3810457882029705e-01 +5.3164750597032174e-03
-7.3999999999999897e+00 +7.9184513151822014e+00 +0.0000000000000000e+00 -7.3999997839251090e+00 -2.9152041881174907e-02 -5.3810483516996466e-01 +5.3166167380311784e-03
-7.4999999999999893e+00 +7.9184091758034638e+00 +0.0000000000000000e+00 -7.4999997750463390e+00 -2.9151980899953828e-02 -5.3810509973529097e-01 +5.3167601216970234e-03
-7.5999999999999890e+00 +7.9183664707871335e+00 +0.0000000000000000e+00 -7.5999997659276133e+00 -2.9151918613862685e-02 -5.3810537278948722e-01 +5.3169051128283658e-03
-7.6999999999999886e+00 +7.9183232001329245e+00 +0.0000000000000000e+00 -7.6999997565657319e+00 -2.9151855457504178e-02 -5.3810565460572479e-01 +5.3170516135569480e-03
-7.7999999999999883e+00 +7.9182793638405427e+00 +0.0000000000000000e+00 -7.7999997469574955e+00 -2.9151791865459929e-02 -5.3810594545713319e-01 +5.3171995260187952e-03
-7.8999999999999879e+00 +7.9182349619096835e+00 +0.0000000000000000e+00 -7.8999997370997042e+00 -2.9151728272289939e-02 -5.3810624561679943e-01 +5.3173487523543502e-03
-7.9999999999999876e+00 +7.9181899943400325e+00 +0.0000000000000000e+00 -7.9999997269891585e+00 -2.9151665112532126e-02 -5.3810655535776586e-01 +5.3174991947086102e-03
-8.0999999999999872e+00 +7.9181444611312664e+00 +0.0000000000000000e+00 -8.0999997166226585e+00 -2.9151602784263982e-02 -5.3810687488292275e-01 +5.3176507626316281e-03
-8.1999999999999869e+00 +7.9180983622830494e+00 +0.0000000000000000e+00 -8.1999997059970049e+00 -2.9151541539818984e-02 -5.3810720411470003e-01 +5.3178033952773216e-03
-8.2999999999999865e+00 +7.9180516977950379e+00 +0.0000000000000000e+00 -8.2999996951089994e+00 -2.9151481595156032e-02 -5.3810754290541374e-01 +5.3179570391975375e-03
-8.3999999999999861e+00 +7.9180044676668775e+00 +0.0000000000000000e+00 -8.3999996839554409e+00 -2.9151423166307946e-02 -5.3810789110737789e-01 +5.3181116409408008e-03
-8.4999999999999858e+00 +7.9179566718982031e+00 +0.0000000000000000e+00 -8.4999996725331286e+00 -2.9151366469383787e-02 -5.3810824857290374e-01 +5.3182671470521923e-03
-8.5999999999999854e+00 +7.9179083104886407e+00 +0.0000000000000000e+00 -8.5999996608388649e+00 -2.9151311720571255e-02 -5.3810861515430064e-01 +5.3184235040732589e-03
-8.6999999999999851e+00 +7.9178593834378068e+00 +0.0000000000000000e+00 -8.6999996488694489e+00 -2.9151259136139054e-02 -5.3810899070387552e-01 +5.3185806585418823e-03
-8.7999999999999847e+00 +7.9178098907453078e+00 +0.0000000000000000e+00 -8.7999996366216813e+00 -2.9151208932439283e-02 -5.3810937507393342e-01 +5.3187385569921919e-03
-8.8999999999999844e+00 +7.9177598324107414e+00 +0.0000000000000000e+00 -8.8999996240923629e+00 -2.9151161325909759e-02 -5.3810976811677680e-01 +5.3188971459544286e-03
-8.9999999999999840e+00 +7.9177092084336955e+00 +0.0000000000000000e+00 -8.9999996112782927e+00 -2.9151116533076438e-02 -5.3811016968470615e-01 +5.3190563719548592e-03
-9.0999999999999837e+00 +7.9176580188137500e+00 +0.0000000000000000e+00 -9.0999995981762734e+00 -2.9151074770555781e-02 -5.3811057963001996e-01 +5.3192161815156583e-03
-9.1999999999999833e+00 +7.9176062635504758e+00 +0.0000000000000000e+00 -9.1999995847831020e+00 -2.9151036255057113e-02 -5.3811099780501426e-01 +5.3193765211547945e-03
-9.2999999999999829e+00 +7.9175539426434351e+00 +0.0000000000000000e+00 -9.2999995710955812e+00 -2.9151001203384964e-02 -5.3811142406198353e-01 +5.3195373373859257e-03
-9.3999999999999826e+00 +7.9175010560921812e+00 +0.0000000000000000e+00 -9.3999995571105099e+00 -2.9150969832441500e-02 -5.3811185825321994e-01 +5.3196985767182915e-03
-9.4999999999999822e+00 +7.9174476038962602e+00 +0.0000000000000000e+00 -9.4999995428246891e+00 -2.9150942359228851e-02 -5.3811230023101309e-01 +5.3198601856565952e-03
-9.5999999999999819e+00 +7.9173935860552085e+00 +0.0000000000000000e+00 -9.5999995282349193e+00 -2.9150919000851514e-02 -5.3811274984765223e-01 +5.3200221107009100e-03
-9.6999999999999815e+00 +7.9173390025685553e+00 +0.0000000000000000e+00 -9.6999995133379997e+00 -2.9150899974518689e-02 -5.3811320695542275e-01 +5.3201842983465544e-03
-9.7999999999999812e+00 +7.9172838534358219e+00 +0.0000000000000000e+00 -9.7999994981307310e+00 -2.9150885497546658e-02 -5.3811367140660971e-01 +5.3203466950839905e-03
-9.8999999999999808e+00 +7.9172281386565215e+00 +0.0000000000000000e+00 -9.8999994826099140e+00 -2.9150875787361172e-02 -5.3811414305349503e-01 +5.3205092473987119e-03
-9.9999999999999805e+00 +7.9171718582301605e+00 +0.0000000000000000e+00 -9.9999994667723477e+00 -2.9150871061499821e-02 -5.3811462174835967e-01 +5.3206719017711429e-03
-1.0099999999999980e+01 +7.9171150121562377e+00 +0.0000000000000000e+00 -1.0099999450614833e+01 -2.9150871439707189e-02 -5.3811510741218904e-01 +5.3208346270343211e-03
-1.0199999999999980e+01 +7.9170576004342443e+00 +0.0000000000000000e+00 -1.0199999434134169e+01 -2.9150876650146127e-02 -5.3811560024079208e-01 +5.3209974814536036e-03
-1.0299999999999979e+01 +7.9169996230636634e+00 +0.0000000000000000e+00 -1.0299999417327156e+01 -2.9150886323012003e-02 -5.3811610049866743e-01 +5.3211605456612437e-03
-1.0399999999999979e+01 +7.9169410800439719e+00 +0.0000000000000000e+00 -1.0399999400190595e+01 -2.9150900088425056e-02 -5.3811660845029208e-01 +5.3213239002993596e-03
-1.0499999999999979e+01 +7.9168819713746368e+00 +0.0000000000000000e+00 -1.0499999382721287e+01 -2.9150917576428206e-02 -5.3811712436012227e-01 +5.3214876260201834e-03
-1.0599999999999978e+01 +7.9168222970551190e+00 +0.0000000000000000e+00 -1.0599999364916030e+01 -2.9150938416984649e-02 -5.3811764849259136e-01 +5.3216518034863141e-03
-1.0699999999999978e+01 +7.9167620570848678e+00 +0.0000000000000000e+00 -1.0699999346771625e+01 -2.9150962239975622e-02 -5.3811818111211085e-01 +5.3218165133709777e-03
-1.0799999999999978e+01 +7.9167012514633264e+00 +0.0000000000000000e+00 -1.0799999328284871e+01 -2.9150988675198053e-02 -5.3811872248306825e-01 +5.3219818363582716e-03
-1.0899999999999977e+01 +7.9166398801899271e+00 +0.0000000000000000e+00 -1.0899999309452570e+01 -2.9151017352362314e-02 -5.3811927286982897e-01 +5.3221478531434345e-03
-1.0999999999999977e+01 +7.9165779432640937e+00 +0.0000000000000000e+00 -1.0999999290271521e+01 -2.9151047901089862e-02 -5.3811983253673346e-01 +5.3223146444330866e-03
-1.1099999999999977e+01 +7.9165154406852398e+00 +0.0000000000000000e+00 -1.1099999270738524e+01 -2.9151079950910989e-02 -5.3812040174809839e-01 +5.3224822909454924e-03
-1.1199999999999976e+01 +7.9164523724527687e+00 +0.0000000000000000e+00 -1.1199999250850379e+01 -2.9151113131262466e-02 -5.3812098076821557e-01 +5.3226508734108132e-03
-1.1299999999999976e+01 +7.9163887385660745e+00 +0.0000000000000000e+00 -1.1299999230603886e+01 -2.9151147071485320e-02 -5.3812156986135151e-01 +5.3228204725713621e-03
-1.1399999999999975e+01 +7.9163245390245391e+00 +0.0000000000000000e+00 -1.1399999209995844e+01 -2.9151181400822429e-02 -5.3812216929174672e-01 +5.3229911691818517e-03
-1.1499999999999975e+01 +7.9162597738275347e+00 +0.0000000000000000e+00 -1.1499999189023054e+01 -2.9151215748416327e-02 -5.3812277932361663e-01 +5.3231630440096636e-03
-1.1599999999999975e+01 +7.9161944429744224e+00 +0.0000000000000000e+00 -1.1599999167682316e+01 -2.9151249743306813e-02 -5.3812340022114857e-01 +5.3233361778350814e-03
-1.1699999999999974e+01 +7.9161285464645514e+00 +0.0000000000000000e+00 -1.1699999145970430e+01 -2.9151283014428736e-02 -5.3812403224850403e-01 +5.3235106514515620e-03
