# multipoles
# s[mm] polynom_b[n=0][T/m^n] polynom_b[n=1][T/m^n] polynom_b[n=2][T/m^n] polynom_b[n=3][T/m^n] polynom_b[n=4][T/m^n] polynom_b[n=5][T/m^n] polynom_b[n=6][T/m^n] 
+0.0000000000000000e+00 -5.3812856022781375e-01 +7.3405929726942238e+00 -9.1048134529150271e-01 +3.0798972085275885e+01 +5.6773534775194939e+03 -3.1629718399925000e+05 -2.5129979209968247e+07 
+1.0000000000000001e-01 -5.3812842707655506e-01 +7.3405940484643351e+00 -9.2121584398078193e-01 +3.1078986289806085e+01 +5.8162418446581578e+03 -3.1866462178406137e+05 -2.5647750316474859e+07 
+2.0000000000000001e-01 -5.3812830632140818e-01 +7.3405918937174750e+00 -9.3111400014315882e-01 +3.1427172006534942e+01 +5.9402820907795713e+03 -3.2138954559099709e+05 -2.6101129898211326e+07 
+3.0000000000000004e-01 -5.3812819830910197e-01 +7.3405867414099069e+00 -9.4016756448338445e-01 +3.1836081611613071e+01 +6.0497963149804855e+03 -3.2442791896323313e+05 -2.6492458105088983e+07 
+4.0000000000000002e-01 -5.3812810338630257e-01 +7.3405788244943047e+00 -9.4836829458857697e-01 +3.2298267580245899e+01 +6.1451067417293616e+03 -3.2773570598315814e+05 -2.6824075668142371e+07 
+5.0000000000000000e-01 -5.3812802189968778e-01 +7.3405683759210030e+00 -9.5570794644800539e-01 +3.2806282459594556e+01 +6.2265355646019971e+03 -3.3126887113332783e+05 -2.7098323170450095e+07 
+5.9999999999999998e-01 -5.3812795419593451e-01 +7.3405556286306757e+00 -9.6217827543342471e-01 +3.3352679063003322e+01 +6.2944049601869328e+03 -3.3498338037039671e+05 -2.7317541100087233e+07 
+6.9999999999999996e-01 -5.3812790062172056e-01 +7.3405408155620293e+00 -9.6777103679417587e-01 +3.3930010246220526e+01 +6.3490371049940413e+03 -3.3883519982521812e+05 -2.7484069953686971e+07 
+7.9999999999999993e-01 -5.3812786152369840e-01 +7.3405241696478774e+00 -9.7247798744394953e-01 +3.4530829013706111e+01 +6.3907541984125410e+03 -3.4278029639455024e+05 -2.7600250316857278e+07 
+8.9999999999999991e-01 -5.3812783724853108e-01 +7.3405059238152841e+00 -9.7629088359041205e-01 +3.5147688498715354e+01 +6.4198784316201591e+03 -3.4677463758469035e+05 -2.7668422753901292e+07 
+9.9999999999999989e-01 -5.3812782814289239e-01 +7.3404863109798315e+00 -9.7920147861489248e-01 +3.5773142129453696e+01 +6.4367319342682904e+03 -3.5077419246164052e+05 -2.7690927521127895e+07 
+1.0999999999999999e+00 -5.3812783455345714e-01 +7.3404655640628018e+00 -9.8120152595725785e-01 +3.6399743127608971e+01 +6.4416368426539439e+03 -3.5473492874689435e+05 -2.7670104928891961e+07 
+1.2000000000000000e+00 -5.3812785682687758e-01 +7.3404439159658219e+00 -9.8228278084645160e-01 +3.7020045221346230e+01 +6.4349153209683482e+03 -3.5861281687303347e+05 -2.7608295410350394e+07 
+1.3000000000000000e+00 -5.3812789530985772e-01 +7.3404215995920570e+00 -9.8243699186383449e-01 +3.7626602033837614e+01 +6.4168894115283301e+03 -3.6236382645584934e+05 -2.7507838841294866e+07 
+1.4000000000000001e+00 -5.3812795034908634e-01 +7.3403988478340514e+00 -9.8165590862244345e-01 +3.8211967428139680e+01 +6.3878811715616421e+03 -3.6594392826459394e+05 -2.7371075164979272e+07 
+1.5000000000000002e+00 -5.3812802229126699e-01 +7.3403758935768844e+00 -9.7993127855410656e-01 +3.8768695407885637e+01 +6.3482126204207052e+03 -3.6930909362402576e+05 -2.7200344165118217e+07 
+1.6000000000000003e+00 -5.3812811148312190e-01 +7.3403529696967542e+00 -9.7725484602864887e-01 +3.9289340146388582e+01 +6.2982057181590590e+03 -3.7241529454655002e+05 -2.6997985353474408e+07 
+1.7000000000000004e+00 -5.3812821827138524e-01 +7.3403303090638614e+00 -9.7361835354258830e-01 +3.9766455898242818e+01 +6.2381823911824140e+03 -3.7521850320841937e+05 -2.6766338100136060e+07 
+1.8000000000000005e+00 -5.3812834300280743e-01 +7.3403081445385014e+00 -9.6901354065452261e-01 +4.0192597107510004e+01 +6.1684645098051724e+03 -3.7767469255284197e+05 -2.6507741521837160e+07 
+1.9000000000000006e+00 -5.3812848602415797e-01 +7.3402867089718704e+00 -9.6343214426714319e-01 +4.0560318371212368e+01 +6.0893738976220429e+03 -3.7973983604775538e+05 -2.6224534539833669e+07 
+2.0000000000000004e+00 -5.3812864768225699e-01 +7.3402662352075607e+00 -9.5686589412716605e-01 +4.0862174391024219e+01 +6.0012322419324782e+03 -3.8136990738892357e+05 -2.5919055442141492e+07 
+2.1000000000000005e+00 -5.3812882806850648e-01 +7.3402469512167343e+00 -9.4932580747580431e-01 +4.1092094559176502e+01 +5.9045196990624027e+03 -3.8253081026082329e+05 -2.5593955777643595e+07 
+2.2000000000000006e+00 -5.3812902624675374e-01 +7.3402290631532718e+00 -9.4090081910905443e-01 +4.1249702213899027e+01 +5.8003482698129919e+03 -3.8322931627036782e+05 -2.5253087278989632e+07 
+2.3000000000000007e+00 -5.3812924102244175e-01 +7.3402127711067644e+00 -9.3169953951473095e-01 +4.1336094601486288e+01 +5.6899873707079923e+03 -3.8348271119324106e+05 -2.4900588172797229e+07 
+2.4000000000000008e+00 -5.3812947120102650e-01 +7.3401982751714447e+00 -9.2183057886565445e-01 +4.1352368849226892e+01 +5.5747064192120652e+03 -3.8330828019461728e+05 -2.4540596701523736e+07 
+2.5000000000000009e+00 -5.3812971558798828e-01 +7.3401857754469031e+00 -9.1140254581357238e-01 +4.1299621932147780e+01 +5.4557748116709981e+03 -3.8272330762043851e+05 -2.4177251020963777e+07 
+2.6000000000000010e+00 -5.3812997298882470e-01 +7.3401754720390580e+00 -9.0052404856069734e-01 +4.1178950663286585e+01 +5.3344619415682819e+03 -3.8174507698922558e+05 -2.3814689275884219e+07 
+2.7000000000000011e+00 -5.3813024220904959e-01 +7.3401675650632949e+00 -8.8930369507255458e-01 +4.0991451615606479e+01 +5.2120372054205391e+03 -3.8039087059814436e+05 -2.3457049633095130e+07 
+2.8000000000000012e+00 -5.3813052205418765e-01 +7.3401622546394814e+00 -8.7785009407504888e-01 +4.0738221261700950e+01 +5.0897700253657977e+03 -3.7867797031846677e+05 -2.3108470398813765e+07 
+2.9000000000000012e+00 -5.3813081132979690e-01 +7.3401597409041726e+00 -8.6627185215024305e-01 +4.0420355637498929e+01 +4.9689297878382413e+03 -3.7662365570601157e+05 -2.2773089705010112e+07 
+3.0000000000000013e+00 -5.3813110884145754e-01 +7.3401602239998560e+00 -8.5467757571376346e-01 +4.0038950659894532e+01 +4.8507858887397670e+03 -3.7424520587011648e+05 -2.2455045746025149e+07 
+3.1000000000000014e+00 -5.3813141339475501e-01 +7.3401639040876647e+00 -8.4317587290552931e-01 +3.9595101756637582e+01 +4.7366077646424701e+03 -3.7155989732958900e+05 -2.2158476910729345e+07 
+3.2000000000000015e+00 -5.3813172379532304e-01 +7.3401709813336158e+00 -8.3187534900784299e-01 +3.9089904285975614e+01 +4.6276648115639500e+03 -3.6858500651352649e+05 -2.1887521410914611e+07 
+3.3000000000000016e+00 -5.3813203884879579e-01 +7.3401816559265356e+00 -8.2088461182295636e-01 +3.8524453018696022e+01 +4.5252264826699020e+03 -3.6533780677238147e+05 -2.1646317732454278e+07 
+3.4000000000000017e+00 -5.3813235736082354e-01 +7.3401961280688690e+00 -8.1031227027406727e-01 +3.7899842414313802e+01 +4.4305622644477426e+03 -3.6183557001130300e+05 -2.1439004527205795e+07 
+3.5000000000000018e+00 -5.3813267813711185e-01 +7.3402145979785649e+00 -8.0026692990433035e-01 +3.7217166559181294e+01 +4.3449415928523104e+03 -3.5809556632828224e+05 -2.1269720217041090e+07 
+3.6000000000000019e+00 -5.3813299998337327e-01 +7.3402372658942259e+00 -7.9085719889283246e-01 +3.6477519048916605e+01 +4.2696339664042252e+03 -3.5413506341658614e+05 -2.1142603525697939e+07 
+3.7000000000000020e+00 -5.3813332170533390e-01 +7.3402643320727590e+00 -7.8219168721987098e-01 +3.5681993055098893e+01 +4.2059089319408922e+03 -3.4997132697113499e+05 -2.1061793416819140e+07 
+3.8000000000000020e+00 -5.3813364210879266e-01 +7.3402959967922836e+00 -7.7437900001179827e-01 +3.4831681233073716e+01 +4.1550359602080507e+03 -3.4562162013160094e+05 -2.1031428501620114e+07 
+3.9000000000000021e+00 -5.3813395999950553e-01 +7.3403324603546114e+00 -7.6752775105973114e-01 +3.3927675682514298e+01 +4.1182846961069354e+03 -3.4110320335163124e+05 -2.1055648212986074e+07 
+4.0000000000000018e+00 -5.3813427418330317e-01 +7.3403739230795795e+00 -7.6174655017301229e-01 +3.2971068094705224e+01 +4.0969247314211671e+03 -3.3643333523077308e+05 -2.1138591756012462e+07 
+4.1000000000000014e+00 -5.3813458366208433e-01 +7.3404204388683558e+00 -7.5711225403123894e-01 +3.1964343037843278e+01 +4.0917582046937100e+03 -3.3163233322552493e+05 -2.1282563023939386e+07 
+4.2000000000000011e+00 -5.3813488822189581e-01 +7.3404714679056058e+00 -7.5357070642975132e-01 +3.0915489473272402e+01 +4.1016798505473234e+03 -3.2673192518546543e+05 -2.1482444411081661e+07 
+4.3000000000000007e+00 -5.3813518784491088e-01 +7.3405263199302908e+00 -7.5103396715416404e-01 +2.9833850353119423e+01 +4.1250979359190860e+03 -3.2176645042540960e+05 -2.1731242634941272e+07 
+4.4000000000000004e+00 -5.3813548251325871e-01 +7.3405843046766766e+00 -7.4941409738972631e-01 +2.8728768821744566e+01 +4.1604207317666533e+03 -3.1677024951533898e+05 -2.2021964389884975e+07 
+4.5000000000000000e+00 -5.3813577220897457e-01 +7.3406447318702552e+00 -7.4862316568119269e-01 +2.7609588346288962e+01 +4.2060566239679229e+03 -3.1177766504782817e+05 -2.2347616873010069e+07 
+4.5999999999999996e+00 -5.3813605691403865e-01 +7.3407069112385788e+00 -7.4857324321941598e-01 +2.6485652398860800e+01 +4.2604140258674734e+03 -3.0682303978013905e+05 -2.2701207373652030e+07 
+4.6999999999999993e+00 -5.3813633661037541e-01 +7.3407701524973792e+00 -7.4917640365068638e-01 +2.5366304878222177e+01 +4.3219013706373698e+03 -3.0194071912202594e+05 -2.3075743227937296e+07 
+4.7999999999999989e+00 -5.3813661127980505e-01 +7.3408337653619178e+00 -7.5034472789014484e-01 +2.4260889762500927e+01 +4.3889271989133213e+03 -2.9716504907245882e+05 -2.3464232229483087e+07 
+4.8999999999999986e+00 -5.3813688090407785e-01 +7.3408970595350915e+00 -7.5199030076298579e-01 +2.3178751465414233e+01 +4.4599000981615527e+03 -2.9253037831170612e+05 -2.3859682348414276e+07 
+4.9999999999999982e+00 -5.3813714546486613e-01 +7.3409593447138075e+00 -7.5402521088253094e-01 +2.2129234662455019e+01 +4.5332286940896347e+03 -2.8807105721051298e+05 -2.4255101676242296e+07 
+5.0999999999999979e+00 -5.3813740494375306e-01 +7.3410199305899662e+00 -7.5636155207942013e-01 +2.1121684247718353e+01 +4.6073216801795552e+03 -2.8382143754529435e+05 -2.4643498576366536e+07 
+5.1999999999999975e+00 -5.3813765932221214e-01 +7.3410781268445628e+00 -7.5891142563003400e-01 +2.0165445528212583e+01 +4.6805878560358860e+03 -2.7981587367162667e+05 -2.5017881854618333e+07 
+5.2999999999999972e+00 -5.3813790858163235e-01 +7.3411332431497653e+00 -7.6158693661472965e-01 +1.9269864138823500e+01 +4.7514360560621999e+03 -2.7608872196947882e+05 -2.5371260417484224e+07 
+5.3999999999999968e+00 -5.3813815270329823e-01 +7.3411845891665006e+00 -7.6430019637305668e-01 +1.8444286144300253e+01 +4.8182751967926597e+03 -2.7267434151091927e+05 -2.5696643500789881e+07 
+5.4999999999999964e+00 -5.3813839166837196e-01 +7.3412314745495051e+00 -7.6696332403932110e-01 +1.7698057873456143e+01 +4.8795143017590399e+03 -2.6960709304166003e+05 -2.5987040778396420e+07 
+5.5999999999999961e+00 -5.3813862545792590e-01 +7.3412732089358173e+00 -7.6948844297541297e-01 +1.7040526265047358e+01 +4.9335624356593989e+03 -2.6692134101194347e+05 -2.6235462054260619e+07 
+5.6999999999999957e+00 -5.3813885405291939e-01 +7.3413091019578891e+00 -7.7178768254581653e-01 +1.6481038488448707e+01 +4.9788287334219185e+03 -2.6465145138080476e+05 -2.6434917392018758e+07 
+5.7999999999999954e+00 -5.3813907743416978e-01 +7.3413384632321703e+00 -7.7377318142529394e-01 +1.6028942278503926e+01 +5.0137224609821687e+03 -2.6283179355830711e+05 -2.6578417399737064e+07 
+5.8999999999999950e+00 -5.3813929558237272e-01 +7.3413606023627445e+00 -7.7535708543001558e-01 +1.5693585830254545e+01 +5.0366529752367496e+03 -2.6149673978940418e+05 -2.6658973043358441e+07 
+5.9999999999999947e+00 -5.3813950847812386e-01 +7.3413748289404754e+00 -7.7645154409181694e-01 +1.5484317838399852e+01 +5.0460296578275138e+03 -2.6068066539343141e+05 -2.6669595329581525e+07 
+6.0999999999999943e+00 -5.3813971618421008e-01 +7.3413806668287513e+00 -7.7699152150043704e-01 +1.5407369262808476e+01 +5.0407521770300564e+03 -2.6040600426180378e+05 -2.6605658457536187e+07 
+6.1999999999999940e+00 -5.3813991910679615e-01 +7.3413785262866815e+00 -7.7701008701044050e-01 +1.5455890710450054e+01 +5.0217706072082137e+03 -2.6064446227787813e+05 -2.6472289282438129e+07 
+6.2999999999999936e+00 -5.3814011774141801e-01 +7.3413690467445205e+00 -7.7656663712015706e-01 +1.5619615184324651e+01 +4.9905717135413279e+03 -2.6135436532569892e+05 -2.6277136314836744e+07 
+6.3999999999999932e+00 -5.3814031258365991e-01 +7.3413528676320494e+00 -7.7572056683779556e-01 +1.5888275589170256e+01 +4.9486422621781767e+03 -2.6249403826600639e+05 -2.6027848129015472e+07 
+6.4999999999999929e+00 -5.3814050412920311e-01 +7.3413306283836359e+00 -7.7453126366716729e-01 +1.6251604555399677e+01 +4.8974689064997901e+03 -2.6402180386078369e+05 -2.5732072820773099e+07 
+6.5999999999999925e+00 -5.3814069287380417e-01 +7.3413029684305142e+00 -7.7305811066623886e-01 +1.6699334670270627e+01 +4.8385382476948907e+03 -2.6589598413708369e+05 -2.5397458300104823e+07 
+6.6999999999999922e+00 -5.3814087931330767e-01 +7.3412705272100798e+00 -7.7136048497279497e-01 +1.7221198183985262e+01 +4.7733368085429211e+03 -2.6807489860910695e+05 -2.5031652171807028e+07 
+6.7999999999999918e+00 -5.3814106394363548e-01 +7.3412339441525951e+00 -7.6949775982277346e-01 +1.7806927390088660e+01 +4.7033510752280908e+03 -2.7051686645980104e+05 -2.4642301940814365e+07 
+6.8999999999999915e+00 -5.3814124726082579e-01 +7.3411938587016117e+00 -7.6752929925327718e-01 +1.8446254038325069e+01 +4.6300673942197091e+03 -2.7318020316009445e+05 -2.4237054514799904e+07 
+6.9999999999999911e+00 -5.3814142976099921e-01 +7.3411509102897510e+00 -7.6551446304061233e-01 +1.9128910025603798e+01 +4.5549720708167442e+03 -2.7602322442310618e+05 -2.3823556684145056e+07 
+7.0999999999999908e+00 -5.3814161194037835e-01 +7.3411057383576956e+00 -7.6351260458573522e-01 +1.9844626828203896e+01 +4.4795513303003172e+03 -2.7900424287142040e+05 -2.3409454939138383e+07 
+7.1999999999999904e+00 -5.3814179429530062e-01 +7.3410589823473904e+00 -7.6158306944381937e-01 +2.0583135703567990e+01 +4.4052912927381449e+03 -2.8208156921308761e+05 -2.3002395357403431e+07 
+7.2999999999999901e+00 -5.3814197732222013e-01 +7.3410112816997160e+00 -7.5978519470152428e-01 +2.1334167742562400e+01 +4.3336779562716029e+03 -2.8521351250106719e+05 -2.2610023509388115e+07 
+7.3999999999999897e+00 -5.3814216151768079e-01 +7.3409632758582752e+00 -7.5817831378626799e-01 +2.2087453763941689e+01 +4.2661972987922927e+03 -2.8835837952396029e+05 -2.2239984967312317e+07 
+7.4999999999999893e+00 -5.3814234737835986e-01 +7.3409156042675781e+00 -7.5682175026274667e-01 +2.2832724347031331e+01 +4.2043351569095585e+03 -2.9147447493921686e+05 -2.1899924722791221e+07 
+7.5999999999999890e+00 -5.3814253540107926e-01 +7.3408689063758992e+00 -7.5577481740006280e-01 +2.3559709748723130e+01 +4.1495772204703753e+03 -2.9452010078737105e+05 -2.1597487163644586e+07 
+7.6999999999999886e+00 -5.3814272608273916e-01 +7.3408238216288231e+00 -7.5509682608997430e-01 +2.4258140085956445e+01 +4.1034091841825557e+03 -2.9745355753493949e+05 -2.1340316799224693e+07 
+7.7999999999999883e+00 -5.3814291992042473e-01 +7.3407809894781106e+00 -7.5484707198043322e-01 +2.4917745064767068e+01 +4.0673165034046692e+03 -3.0023314245432283e+05 -2.1136057097245526e+07 
+7.8999999999999879e+00 -5.3814311741130127e-01 +7.3407410493740102e+00 -7.5508484910751528e-01 +2.5528254199319360e+01 +4.0427846582981697e+03 -3.0281715088642121e+05 -2.0992351753741670e+07 
+7.9999999999999876e+00 -5.3814331905274038e-01 +7.3407046407717935e+00 -7.5586943414233687e-01 +2.6079396587014006e+01 +4.0312988491226897e+03 -3.0516387483280647e+05 -2.0916843222926322e+07 
+8.0999999999999872e+00 -5.3814352536273802e-01 +7.3406722760170107e+00 -7.5724018595408127e-01 +2.6562917803161572e+01 +4.0338757527769053e+03 -3.0723919886852056e+05 -2.0914748771269582e+07 
+8.1999999999999869e+00 -5.3814373693056405e-01 +7.3406439247223281e+00 -7.5915121405507779e-01 +2.6979660214442127e+01 +4.0495726728633435e+03 -3.0904533075187157e+05 -2.0981285958734076e+07 
+8.2999999999999865e+00 -5.3814395436052676e-01 +7.3406194118985892e+00 -7.6153380602826481e-01 +2.7332997025173608e+01 +4.0769323872634009e+03 -3.1059501048047829e+05 -2.1109078483980753e+07 
+8.3999999999999861e+00 -5.3814417825690841e-01 +7.3405985625494106e+00 -7.6431925046285765e-01 +2.7626301735817250e+01 +4.1144976713213055e+03 -3.1190098029902653e+05 -2.1290749982047256e+07 
+8.4999999999999858e+00 -5.3814440922397944e-01 +7.3405812016711485e+00 -7.6743883678147717e-01 +2.7862948158785585e+01 +4.1608113013527354e+03 -3.1297598486830812e+05 -2.1518924055494558e+07 
+8.5999999999999854e+00 -5.3814464786597360e-01 +7.3405671542532458e+00 -7.7082385705223810e-01 +2.8046310401735873e+01 +4.2144160809677433e+03 -3.1383277114846435e+05 -2.1786224378484294e+07 
+8.6999999999999851e+00 -5.3814489478712924e-01 +7.3405562452760158e+00 -7.7440560154410110e-01 +2.8179762959005242e+01 +4.2738547622019851e+03 -3.1448408901960781e+05 -2.2085274337665450e+07 
+8.7999999999999847e+00 -5.3814515059165324e-01 +7.3405482997157421e+00 -7.7811536293288563e-01 +2.8266680537468098e+01 +4.3376701215061667e+03 -3.1494269021166943e+05 -2.2408697382306594e+07 
+8.8999999999999844e+00 -5.3814541588371656e-01 +7.3405431425394045e+00 -7.8188443624190129e-01 +2.8310438237301291e+01 +4.4044049550577929e+03 -3.1522132943964057e+05 -2.2749116992528673e+07 
+8.9999999999999840e+00 -5.3814569126749268e-01 +7.3405405987059531e+00 -7.8564411501145515e-01 +2.8314411508645030e+01 +4.4726020127528100e+03 -3.1533276414318726e+05 -2.3099156385814968e+07 
+9.0999999999999837e+00 -5.3814597734711000e-01 +7.3405404931645251e+00 -7.8932569664629637e-01 +2.8281976202176349e+01 +4.5408040939697148e+03 -3.1528975478617585e+05 -2.3451438954296984e+07 
+9.1999999999999833e+00 -5.3814627472666976e-01 +7.3405426508616261e+00 -7.9286047984671126e-01 +2.8216508381929444e+01 +4.6075539976247283e+03 -3.1510506384935183e+05 -2.3798588025736101e+07 
+9.2999999999999829e+00 -5.3814658401025939e-01 +7.3405468967283563e+00 -7.9617976292977910e-01 +2.8121384678057179e+01 +4.6713944885053224e+03 -3.1479145782407618e+05 -2.4133226698815387e+07 
+9.3999999999999826e+00 -5.3814690580195190e-01 +7.3405530556934169e+00 -7.9921484468975290e-01 +2.7999981929519098e+01 +4.7308683209454875e+03 -3.1436170521639579e+05 -2.4447977975824531e+07 
+9.4999999999999822e+00 -5.3814724070574116e-01 +7.3405609526708311e+00 -8.0189703148999436e-01 +2.7855677535602268e+01 +4.7845183643305099e+03 -3.1382857857933332e+05 -2.4735465334887985e+07 
+9.5999999999999819e+00 -5.3814758932565621e-01 +7.3405704125684075e+00 -8.0415762287586368e-01 +2.7691849217306341e+01 +4.8308873292576309e+03 -3.1320485315684445e+05 -2.4988311425448272e+07 
+9.6999999999999815e+00 -5.3814795226565548e-01 +7.3405812602865437e+00 -8.0592792576572492e-01 +2.7511875055043522e+01 +4.8685180436701157e+03 -3.1250330712639954e+05 -2.5199139400786661e+07 
+9.7999999999999812e+00 -5.3814833012966234e-01 +7.3405933207142411e+00 -8.0713924841299289e-01 +2.7319133613908352e+01 +4.8959533280757551e+03 -3.1173672235927440e+05 -2.5360572297064330e+07 
+9.8999999999999808e+00 -5.3814872352160636e-01 +7.3406064187305606e+00 -8.0772289672808784e-01 +2.7117003892417845e+01 +4.9117359336839927e+03 -3.1091788410997245e+05 -2.5465232761071943e+07 
+9.9999999999999805e+00 -5.3814913304534373e-01 +7.3406203792020408e+00 -8.0761018306971166e-01 +2.6908865450296620e+01 +4.9144087058781115e+03 -3.1005958196604898e+05 -2.5505743826282375e+07 
+1.0099999999999980e+01 -5.3814955894081240e-01 +7.3406350138897789e+00 -8.0675488500110937e-01 +2.6698438665410364e+01 +4.9029330772617404e+03 -3.0917735509974486e+05 -2.5476759606043980e+07 
