# field on trajectory
# s[mm] rx[mm] ry[mm] rz[mm] bx[T] by[T] bz[T]
-0.0000000000000000e+00 +8.1530000000000094e+00 +0.0000000000000000e+00 -0.0000000000000000e+00 -3.2416371666471960e-02 -5.9295244163934813e-01 +5.9111733147574914e-03
-1.0000000000000001e-01 +8.1529997163925092e+00 +0.0000000000000000e+00 -9.9999999999463796e-02 -3.2416304332522294e-02 -5.9295245750298931e-01 +5.9111421965545984e-03
-2.0000000000000001e-01 +8.1529988655711296e+00 +0.0000000000000000e+00 -1.9999999999571000e-01 -3.2416231945872988e-02 -5.9295247560834030e-01 +5.9111119245679675e-03
-2.9999999999999999e-01 +8.1529974475415692e+00 +0.0000000000000000e+00 -2.9999999998552201e-01 -3.2416155710482938e-02 -5.9295249651824289e-01 +5.9110823836856057e-03
-4.0000000000000002e-01 +8.1529954622965306e+00 +0.0000000000000000e+00 -3.9999999996568197e-01 -3.2416076830325644e-02 -5.9295252079564265e-01 +5.9110534587957760e-03
-5.0000000000000000e-01 +8.1529929098396696e+00 +0.0000000000000000e+00 -4.9999999993297300e-01 -3.2415996509378146e-02 -5.9295254900339522e-01 +5.9110250347850432e-03
-5.9999999999999998e-01 +8.1529897901673394e+00 +0.0000000000000000e+00 -5.9999999988417696e-01 -3.2415915951628273e-02 -5.9295258170441645e-01 +5.9109969965398515e-03
-6.9999999999999996e-01 +8.1529861032831796e+00 +0.0000000000000000e+00 -6.9999999981607697e-01 -3.2415836361067735e-02 -5.9295261946156530e-01 +5.9109692289453716e-03
-8.0000000000000004e-01 +8.1529818491871993e+00 +0.0000000000000000e+00 -7.9999999972545699e-01 -3.2415758941696113e-02 -5.9295266283773251e-01 +5.9109416168864528e-03
-9.0000000000000002e-01 +8.1529770278793894e+00 +0.0000000000000000e+00 -8.9999999960909804e-01 -3.2415684897518719e-02 -5.9295271239581337e-01 +5.9109140452473863e-03
-1.0000000000000000e+00 +8.1529716393597500e+00 +0.0000000000000000e+00 -9.9999999946378304e-01 -3.2415615432545945e-02 -5.9295276869870828e-01 +5.9108863989119640e-03
-1.1000000000000001e+00 +8.1529656836210105e+00 +0.0000000000000000e+00 -1.0999999992862901e+00 -3.2415551750795690e-02 -5.9295283230938367e-01 +5.9108585627641354e-03
-1.2000000000000000e+00 +8.1529591606740706e+00 +0.0000000000000000e+00 -1.1999999990734200e+00 -3.2415495056281822e-02 -5.9295290379066545e-01 +5.9108304216859186e-03
-1.3000000000000000e+00 +8.1529520705153100e+00 +0.0000000000000000e+00 -1.2999999988219300e+00 -3.2415446553027541e-02 -5.9295298370550586e-01 +5.9108018605602171e-03
-1.3999999999999999e+00 +8.1529444131410909e+00 +0.0000000000000000e+00 -1.3999999985286200e+00 -3.2415407445058601e-02 -5.9295307261686869e-01 +5.9107727642696596e-03
-1.5000000000000000e+00 +8.1529361885550298e+00 +0.0000000000000000e+00 -1.4999999981902701e+00 -3.2415378936399397e-02 -5.9295317108766832e-01 +5.9107430176960178e-03
-1.6000000000000001e+00 +8.1529273967571498e+00 +0.0000000000000000e+00 -1.5999999978036501e+00 -3.2415362231077084e-02 -5.9295327968086164e-01 +5.9107125057212022e-03
-1.7000000000000000e+00 +8.1529180377474404e+00 +0.0000000000000000e+00 -1.6999999973655600e+00 -3.2415358533119332e-02 -5.9295339895941901e-01 +5.9106811132270017e-03
-1.8000000000000000e+00 +8.1529081115222706e+00 +0.0000000000000000e+00 -1.7999999968727800e+00 -3.2415369046555342e-02 -5.9295352948635394e-01 +5.9106487250954482e-03
-1.8999999999999999e+00 +8.1528976180852606e+00 +0.0000000000000000e+00 -1.8999999963220899e+00 -3.2415394975410357e-02 -5.9295367182463887e-01 +5.9106152262079536e-03
-2.0000000000000000e+00 +8.1528865574327902e+00 +0.0000000000000000e+00 -1.9999999957102601e+00 -3.2415437523711378e-02 -5.9295382653732009e-01 +5.9105805014465825e-03
-2.1000000000000001e+00 +8.1528749295721408e+00 +0.0000000000000000e+00 -2.0999999950340902e+00 -3.2415497352613905e-02 -5.9295399385458070e-01 +5.9105444618948941e-03
-2.2000000000000002e+00 +8.1528627344960096e+00 +0.0000000000000000e+00 -2.1999999942903599e+00 -3.2415572951816692e-02 -5.9295417267556016e-01 +5.9105071234479192e-03
-2.2999999999999998e+00 +8.1528499722080596e+00 +0.0000000000000000e+00 -2.2999999934758399e+00 -3.2415662268141639e-02 -5.9295436156651893e-01 +5.9104685282047389e-03
-2.3999999999999999e+00 +8.1528366427046404e+00 +0.0000000000000000e+00 -2.3999999925873299e+00 -3.2415763248405338e-02 -5.9295455909377626e-01 +5.9104287182682380e-03
-2.5000000000000000e+00 +8.1528227459894005e+00 +0.0000000000000000e+00 -2.4999999916215998e+00 -3.2415873839411385e-02 -5.9295476382359091e-01 +5.9103877357442342e-03
-2.6000000000000001e+00 +8.1528082820659602e+00 +0.0000000000000000e+00 -2.5999999905754398e+00 -3.2415991987952662e-02 -5.9295497432222055e-01 +5.9103456227424358e-03
-2.7000000000000002e+00 +8.1527932509234198e+00 +0.0000000000000000e+00 -2.6999999894456299e+00 -3.2416115640816437e-02 -5.9295518915603795e-01 +5.9103024213780159e-03
-2.7999999999999998e+00 +8.1527776525726896e+00 +0.0000000000000000e+00 -2.7999999882289601e+00 -3.2416242744767433e-02 -5.9295540689123472e-01 +5.9102581737688949e-03
-2.8999999999999999e+00 +8.1527614870065008e+00 +0.0000000000000000e+00 -2.8999999869222002e+00 -3.2416371246564178e-02 -5.9295562609414521e-01 +5.9102129220394558e-03
-3.0000000000000000e+00 +8.1527447542284808e+00 +0.0000000000000000e+00 -2.9999999855221300e+00 -3.2416499092945243e-02 -5.9295584533100953e-01 +5.9101667083184531e-03
-3.1000000000000001e+00 +8.1527274542386294e+00 +0.0000000000000000e+00 -3.0999999840255499e+00 -3.2416624230634412e-02 -5.9295606316809102e-01 +5.9101195747405721e-03
-3.2000000000000002e+00 +8.1527095870333106e+00 +0.0000000000000000e+00 -3.1999999824292300e+00 -3.2416744606339642e-02 -5.9295627817167396e-01 +5.9100715634467834e-03
-3.2999999999999998e+00 +8.1526911526198091e+00 +0.0000000000000000e+00 -3.2999999807299600e+00 -3.2416858166745575e-02 -5.9295648890794572e-01 +5.9100227165834705e-03
-3.3999999999999999e+00 +8.1526721509872004e+00 +0.0000000000000000e+00 -3.3999999789245101e+00 -3.2416962858525113e-02 -5.9295669394323158e-01 +5.9099730763052119e-03
-3.5000000000000000e+00 +8.1526525821464002e+00 +0.0000000000000000e+00 -3.4999999770096801e+00 -3.2417056628320916e-02 -5.9295689184366895e-01 +5.9099226847717798e-03
-3.6000000000000001e+00 +8.1526324460901396e+00 +0.0000000000000000e+00 -3.5999999749822500e+00 -3.2417137422761706e-02 -5.9295708117553136e-01 +5.9098715841518438e-03
-3.7000000000000002e+00 +8.1526117428220495e+00 +0.0000000000000000e+00 -3.6999999728389801e+00 -3.2417203188448492e-02 -5.9295726050499065e-01 +5.9098198166208709e-03
-3.7999999999999998e+00 +8.1525904723421299e+00 +0.0000000000000000e+00 -3.7999999705766800e+00 -3.2417251871959804e-02 -5.9295742839823484e-01 +5.9097674243626984e-03
-3.8999999999999999e+00 +8.1525686346503807e+00 +0.0000000000000000e+00 -3.8999999681921298e+00 -3.2417281419849030e-02 -5.9295758342143734e-01 +5.9097144495695838e-03
-4.0000000000000000e+00 +8.1525462297431694e+00 +0.0000000000000000e+00 -3.9999999656820902e+00 -3.2417289778644845e-02 -5.9295772414078551e-01 +5.9096609344428449e-03
-4.0999999999999996e+00 +8.1525232576241304e+00 +0.0000000000000000e+00 -4.0999999630433699e+00 -3.2417275496790167e-02 -5.9295784964863063e-01 +5.9096069272667482e-03
-4.2000000000000002e+00 +8.1524997182896204e+00 +0.0000000000000000e+00 -4.1999999602727298e+00 -3.2417239530497105e-02 -5.9295796114232535e-01 +5.9095525006274876e-03
-4.2999999999999998e+00 +8.1524756117469206e+00 +0.0000000000000000e+00 -4.2999999573669703e+00 -3.2417183437926794e-02 -5.9295806034535603e-01 +5.9094977331776563e-03
-4.4000000000000004e+00 +8.1524509379887604e+00 +0.0000000000000000e+00 -4.3999999543228601e+00 -3.2417108777258792e-02 -5.9295814898130472e-01 +5.9094427035617497e-03
-4.5000000000000000e+00 +8.1524256970187707e+00 +0.0000000000000000e+00 -4.4999999511372000e+00 -3.2417017106681399e-02 -5.9295822877364401e-01 +5.9093874904132902e-03
-4.5999999999999996e+00 +8.1523998888369498e+00 +0.0000000000000000e+00 -4.5999999478067499e+00 -3.2416909984399202e-02 -5.9295830144585304e-01 +5.9093321723553190e-03
-4.7000000000000002e+00 +8.1523735134396702e+00 +0.0000000000000000e+00 -4.6999999443283098e+00 -3.2416788968634348e-02 -5.9295836872141616e-01 +5.9092768279996608e-03
-4.7999999999999998e+00 +8.1523465708305594e+00 +0.0000000000000000e+00 -4.7999999406986600e+00 -3.2416655617623170e-02 -5.9295843232373391e-01 +5.9092215359452787e-03
-4.9000000000000004e+00 +8.1523190610096208e+00 +0.0000000000000000e+00 -4.8999999369145701e+00 -3.2416511489621977e-02 -5.9295849397620992e-01 +5.9091663747784405e-03
-5.0000000000000000e+00 +8.1522909839768491e+00 +0.0000000000000000e+00 -4.9999999329728402e+00 -3.2416358142907060e-02 -5.9295855540222131e-01 +5.9091114230716991e-03
-5.0999999999999996e+00 +8.1522623397286207e+00 +0.0000000000000000e+00 -5.0999999288702398e+00 -3.2416197135777265e-02 -5.9295861832514518e-01 +5.9090567593834487e-03
-5.2000000000000002e+00 +8.1522331282685592e+00 +0.0000000000000000e+00 -5.1999999246035600e+00 -3.2416030026550725e-02 -5.9295868446827227e-01 +5.9090024622562940e-03
-5.2999999999999998e+00 +8.1522033495966806e+00 +0.0000000000000000e+00 -5.2999999201695802e+00 -3.2415858373570722e-02 -5.9295875555489064e-01 +5.9089486102172082e-03
-5.4000000000000004e+00 +8.1521730037093203e+00 +0.0000000000000000e+00 -5.3999999155650800e+00 -3.2415683735207111e-02 -5.9295883330828758e-01 +5.9088952817768240e-03
-5.5000000000000000e+00 +8.1521420906137791e+00 +0.0000000000000000e+00 -5.4999999107868396e+00 -3.2415507669851136e-02 -5.9295891945162904e-01 +5.9088425554274602e-03
-5.5999999999999996e+00 +8.1521106102991308e+00 +0.0000000000000000e+00 -5.5999999058316599e+00 -3.2415331735929434e-02 -5.9295901570819498e-01 +5.9087905096448382e-03
-5.7000000000000002e+00 +8.1520785627762997e+00 +0.0000000000000000e+00 -5.6999999006963096e+00 -3.2415157491887864e-02 -5.9295912380105420e-01 +5.9087392228839965e-03
-5.7999999999999998e+00 +8.1520459480379905e+00 +0.0000000000000000e+00 -5.7999998953775700e+00 -3.2414986496210232e-02 -5.9295924545338685e-01 +5.9086887735819030e-03
-5.9000000000000004e+00 +8.1520127660915005e+00 +0.0000000000000000e+00 -5.8999998898722197e+00 -3.2414820307405251e-02 -5.9295938238821833e-01 +5.9086392401539838e-03
-5.9999999999999902e+00 +8.1519790169259103e+00 +0.0000000000000000e+00 -5.9999998841770603e+00 -3.2414660484022161e-02 -5.9295953632868437e-01 +5.9085907009961336e-03
-6.0999999999999899e+00 +8.1519447005521197e+00 +0.0000000000000000e+00 -6.0999998782888598e+00 -3.2414508373116283e-02 -5.9295970864341696e-01 +5.9085432274697770e-03
-6.1999999999999904e+00 +8.1519098169665103e+00 +0.0000000000000000e+00 -6.1999998722044003e+00 -3.2414364475695845e-02 -5.9295989928399861e-01 +5.9084968628830749e-03
-6.2999999999999901e+00 +8.1518743661654298e+00 +0.0000000000000000e+00 -6.2999998659204701e+00 -3.2414229081249475e-02 -5.9296010784775688e-01 +5.9084516435423300e-03
-6.3999999999999897e+00 +8.1518383481488907e+00 +0.0000000000000000e+00 -6.3999998594338496e+00 -3.2414102479260756e-02 -5.9296033393203540e-01 +5.9084076057660468e-03
-6.4999999999999902e+00 +8.1518017629241495e+00 +0.0000000000000000e+00 -6.4999998527413201e+00 -3.2413984959206429e-02 -5.9296057713416461e-01 +5.9083647858852962e-03
-6.5999999999999899e+00 +8.1517646104839496e+00 +0.0000000000000000e+00 -6.5999998458396698e+00 -3.2413876810565546e-02 -5.9296083705164315e-01 +5.9083232202462302e-03
-6.6999999999999904e+00 +8.1517268908319203e+00 +0.0000000000000000e+00 -6.6999998387256703e+00 -3.2413778322807979e-02 -5.9296111328193180e-01 +5.9082829452085980e-03
-6.7999999999999901e+00 +8.1516886039680703e+00 +0.0000000000000000e+00 -6.7999998313961196e+00 -3.2413689785400622e-02 -5.9296140542257447e-01 +5.9082439971476462e-03
-6.8999999999999897e+00 +8.1516497498923908e+00 +0.0000000000000000e+00 -6.8999998238477902e+00 -3.2413611487805361e-02 -5.9296171307117174e-01 +5.9082064124544838e-03
-6.9999999999999902e+00 +8.1516103286012402e+00 +0.0000000000000000e+00 -6.9999998160774597e+00 -3.2413543719480360e-02 -5.9296203582541196e-01 +5.9081702275370533e-03
-7.0999999999999899e+00 +8.1515703400982602e+00 +0.0000000000000000e+00 -7.0999998080819298e+00 -3.2413486769875030e-02 -5.9296237328298440e-01 +5.9081354788198788e-03
-7.1999999999999904e+00 +8.1515297843834595e+00 +0.0000000000000000e+00 -7.1999997998579603e+00 -3.2413440928434518e-02 -5.9296272504167080e-01 +5.9081022027456624e-03
-7.2999999999999901e+00 +8.1514886614531896e+00 +0.0000000000000000e+00 -7.2999997914023496e+00 -3.2413406484599262e-02 -5.9296309069934761e-01 +5.9080704357759480e-03
-7.3999999999999897e+00 +8.1514469713147300e+00 +0.0000000000000000e+00 -7.3999997827118804e+00 -3.2413383727798457e-02 -5.9296346985387027e-01 +5.9080402143905668e-03
-7.4999999999999902e+00 +8.1514047139571595e+00 +0.0000000000000000e+00 -7.4999997737833199e+00 -3.2413372947462375e-02 -5.9296386210331120e-01 +5.9080115750907549e-03
-7.5999999999999899e+00 +8.1513618893914099e+00 +0.0000000000000000e+00 -7.5999997646134698e+00 -3.2413374433004599e-02 -5.9296426704563721e-01 +5.9079845543964556e-03
-7.6999999999999904e+00 +8.1513184976138309e+00 +0.0000000000000000e+00 -7.6999997551991104e+00 -3.2413388473837582e-02 -5.9296468427900839e-01 +5.9079591888500510e-03
-7.7999999999999901e+00 +8.1512745386207808e+00 +0.0000000000000000e+00 -7.7999997455370096e+00 -3.2413415359365996e-02 -5.9296511340166036e-01 +5.9079355150158021e-03
-7.8999999999999897e+00 +8.1512300124159101e+00 +0.0000000000000000e+00 -7.8999997356239602e+00 -3.2413455378983214e-02 -5.9296555401184881e-01 +5.9079135694799110e-03
-7.9999999999999902e+00 +8.1511849189955701e+00 +0.0000000000000000e+00 -7.9999997254567399e+00 -3.2413508822077358e-02 -5.9296600570796965e-01 +5.9078933888524086e-03
-8.0999999999999908e+00 +8.1511392583670403e+00 +0.0000000000000000e+00 -8.0999997150321406e+00 -3.2413575810349197e-02 -5.9296646795012542e-01 +5.9078749774572510e-03
-8.1999999999999904e+00 +8.1510930305230396e+00 +0.0000000000000000e+00 -8.1999997043469399e+00 -3.2413655794805270e-02 -5.9296693964543046e-01 +5.9078582103970836e-03
-8.2999999999999901e+00 +8.1510462354672200e+00 +0.0000000000000000e+00 -8.2999996933979094e+00 -3.2413748058788078e-02 -5.9296741956259424e-01 +5.9078429304617857e-03
-8.3999999999999897e+00 +8.1509988731995708e+00 +0.0000000000000000e+00 -8.3999996821818605e+00 -3.2413851885661982e-02 -5.9296790647031983e-01 +5.9078289804366125e-03
-8.4999999999999893e+00 +8.1509509437164507e+00 +0.0000000000000000e+00 -8.4999996706955496e+00 -3.2413966558813831e-02 -5.9296839913730248e-01 +5.9078162031019786e-03
-8.5999999999999908e+00 +8.1509024470215099e+00 +0.0000000000000000e+00 -8.5999996589357703e+00 -3.2414091361648710e-02 -5.9296889633213812e-01 +5.9078044412322764e-03
-8.6999999999999904e+00 +8.1508533831147396e+00 +0.0000000000000000e+00 -8.6999996468993004e+00 -3.2414225577595338e-02 -5.9296939682341199e-01 +5.9077935375965772e-03
-8.7999999999999794e+00 +8.1508037519961398e+00 +0.0000000000000000e+00 -8.7999996345829192e+00 -3.2414368490105025e-02 -5.9296989937966660e-01 +5.9077833349580836e-03
-8.8999999999999808e+00 +8.1507535536620708e+00 +0.0000000000000000e+00 -8.8999996219834205e+00 -3.2414519382653821e-02 -5.9297040276943080e-01 +5.9077736760742008e-03
-8.9999999999999805e+00 +8.1507027881161793e+00 +0.0000000000000000e+00 -8.9999996090975891e+00 -3.2414677538738432e-02 -5.9297090576112876e-01 +5.9077644036953725e-03
-9.0999999999999801e+00 +8.1506514553584601e+00 +0.0000000000000000e+00 -9.0999995959221902e+00 -3.2414842241881472e-02 -5.9297140712316732e-01 +5.9077553605657853e-03
-9.1999999999999797e+00 +8.1505995553889097e+00 +0.0000000000000000e+00 -9.1999995824540193e+00 -3.2415012775630456e-02 -5.9297190562390623e-01 +5.9077463894227989e-03
-9.2999999999999794e+00 +8.1505470882038900e+00 +0.0000000000000000e+00 -9.2999995686898593e+00 -3.2415188423560053e-02 -5.9297240003168428e-01 +5.9077373329970368e-03
-9.3999999999999808e+00 +8.1504940538070496e+00 +0.0000000000000000e+00 -9.3999995546264898e+00 -3.2415368469267833e-02 -5.9297288911473123e-01 +5.9077280340112262e-03
-9.4999999999999805e+00 +8.1504404521983798e+00 +0.0000000000000000e+00 -9.4999995402606903e+00 -3.2415552196379628e-02 -5.9297337164125286e-01 +5.9077183351808771e-03
-9.5999999999999801e+00 +8.1503862833778804e+00 +0.0000000000000000e+00 -9.5999995255892507e+00 -3.2415738888548609e-02 -5.9297384637940254e-01 +5.9077080792137443e-03
-9.6999999999999797e+00 +8.1503315473419207e+00 +0.0000000000000000e+00 -9.6999995106089507e+00 -3.2415927829457257e-02 -5.9297431209730633e-01 +5.9076971088098933e-03
-9.7999999999999794e+00 +8.1502762440941297e+00 +0.0000000000000000e+00 -9.7999994953165697e+00 -3.2416118302813476e-02 -5.9297476756297607e-01 +5.9076852666605567e-03
-9.8999999999999808e+00 +8.1502203736345091e+00 +0.0000000000000000e+00 -9.8999994797088906e+00 -3.2416309592355710e-02 -5.9297521154439414e-01 +5.9076723954488049e-03
-9.9999999999999805e+00 +8.1501639359594300e+00 +0.0000000000000000e+00 -9.9999994637827001e+00 -3.2416500981853572e-02 -5.9297564280951265e-01 +5.9076583378493133e-03
-1.0100000000000000e+01 +8.1501069310761505e+00 +0.0000000000000000e+00 -1.0099999447534801e+01 -3.2416691822111099e-02 -5.9297606046211371e-01 +5.9076429876681021e-03
-1.0199999999999999e+01 +8.1500493589774106e+00 +0.0000000000000000e+00 -1.0199999430961901e+01 -3.2416881731978889e-02 -5.9297646494999867e-01 +5.9076264432709764e-03
-1.0300000000000001e+01 +8.1499912196668394e+00 +0.0000000000000000e+00 -1.0299999414060901e+01 -3.2417070397261355e-02 -5.9297685705689018e-01 +5.9076088541553723e-03
-1.0400000000000000e+01 +8.1499325131444493e+00 +0.0000000000000000e+00 -1.0399999396828500e+01 -3.2417257503702945e-02 -5.9297723756656806e-01 +5.9075903698083869e-03
-1.0500000000000000e+01 +8.1498732394065900e+00 +0.0000000000000000e+00 -1.0499999379261400e+01 -3.2417442736986483e-02 -5.9297760726286997e-01 +5.9075711397065340e-03
-1.0600000000000000e+01 +8.1498133984568994e+00 +0.0000000000000000e+00 -1.0599999361356600e+01 -3.2417625782726792e-02 -5.9297796692960403e-01 +5.9075513133145597e-03
-1.0699999999999999e+01 +8.1497529902953794e+00 +0.0000000000000000e+00 -1.0699999343110701e+01 -3.2417806326473779e-02 -5.9297831735063811e-01 +5.9075310400860974e-03
-1.0800000000000001e+01 +8.1496920149220404e+00 +0.0000000000000000e+00 -1.0799999324520600e+01 -3.2417984053709215e-02 -5.9297865930987093e-01 +5.9075104694631085e-03
-1.0900000000000000e+01 +8.1496304723332305e+00 +0.0000000000000000e+00 -1.0899999305583000e+01 -3.2418158649846721e-02 -5.9297899359126238e-01 +5.9074897508759345e-03
-1.1000000000000000e+01 +8.1495683625325892e+00 +0.0000000000000000e+00 -1.0999999286294800e+01 -3.2418329800225250e-02 -5.9297932097874584e-01 +5.9074690337420988e-03
-1.1100000000000000e+01 +8.1495056855201309e+00 +0.0000000000000000e+00 -1.1099999266652601e+01 -3.2418497190112354e-02 -5.9297964225631750e-01 +5.9074484674669888e-03
-1.1199999999999999e+01 +8.1494424412958306e+00 +0.0000000000000000e+00 -1.1199999246653300e+01 -3.2418660504700769e-02 -5.9297995820800697e-01 +5.9074282014432754e-03
-1.1300000000000001e+01 +8.1493786298560700e+00 +0.0000000000000000e+00 -1.1299999226293700e+01 -3.2418819429108542e-02 -5.9298026961790851e-01 +5.9074083850509688e-03
-1.1400000000000000e+01 +8.1493142512044905e+00 +0.0000000000000000e+00 -1.1399999205570500e+01 -3.2418973648372519e-02 -5.9298057727009246e-01 +5.9073891676562247e-03
-1.1500000000000000e+01 +8.1492493053447106e+00 +0.0000000000000000e+00 -1.1499999184480499e+01 -3.2419122847449848e-02 -5.9298088194866561e-01 +5.9073706986117226e-03
-1.1600000000000000e+01 +8.1491837922658306e+00 +0.0000000000000000e+00 -1.1599999163020600e+01 -3.2419266711222784e-02 -5.9298118443788983e-01 +5.9073531272576104e-03
-1.1699999999999999e+01 +8.1491177119787608e+00 +0.0000000000000000e+00 -1.1699999141187400e+01 -3.2419404924481136e-02 -5.9298148552188767e-01 +5.9073366029181911e-03
