# multipoles
# s[mm] polynom_b[n=0][T/m^n] polynom_b[n=1][T/m^n] polynom_b[n=2][T/m^n] polynom_b[n=3][T/m^n] polynom_b[n=4][T/m^n] polynom_b[n=5][T/m^n] polynom_b[n=6][T/m^n] 
+0.0000000000000000e+00 -5.3679479511794992e-01 +7.3527463335840162e+00 -6.0407281420622384e-02 +6.6253756958844912e-01 +2.8394180722220908e+03 -1.1940771058322038e+05 -2.7070842059605394e+07 
+1.0000000000000001e-01 -5.3679469681048686e-01 +7.3527444426914093e+00 -5.1001270299912131e-02 +3.7265932676566121e-01 +2.7024149212318407e+03 -1.1745608400026815e+05 -2.6559758810309634e+07 
+2.0000000000000001e-01 -5.3679460136328871e-01 +7.3527416397446954e+00 -4.1943508194090692e-02 +9.0353123728922152e-02 +2.5713590648866598e+03 -1.1554877177641951e+05 -2.6077556967457596e+07 
+3.0000000000000004e-01 -5.3679450900819481e-01 +7.3527379707371932e+00 -3.3216724634267038e-02 -1.8409738663055364e-01 +2.4459131505625528e+03 -1.1368844317964374e+05 -2.5622347972442061e+07 
+4.0000000000000002e-01 -5.3679441997704713e-01 +7.3527334816650463e+00 -2.4803648443947477e-02 -4.5040862563654255e-01 +2.3257398105299253e+03 -1.1187776704231380e+05 -2.5192243189679816e+07 
+5.0000000000000000e-01 -5.3679433450170144e-01 +7.3527282185237519e+00 -1.6687006699973698e-02 -7.0829699842290028e-01 +2.2105016456602775e+03 -1.1011941226169252e+05 -2.4785353840460241e+07 
+5.9999999999999998e-01 -5.3679425281399851e-01 +7.3527222273099957e+00 -8.8495281193801296e-03 -9.5747893879583446e-01 +2.0998612879773259e+03 -1.0841604757161751e+05 -2.4399791293218438e+07 
+6.9999999999999996e-01 -5.3679417514577044e-01 +7.3527155540209348e+00 -1.2739424418599220e-03 -1.1976708895353514e+00 +1.9934813890732280e+03 -1.0677034166682333e+05 -2.4033667009645954e+07 
+7.9999999999999993e-01 -5.3679410172885322e-01 +7.3527082446570615e+00 +6.0570208788689895e-03 -1.4285893970125310e+00 +1.8910245971868558e+03 -1.0518496261862369e+05 -2.3685092440438665e+07 
+8.9999999999999991e-01 -5.3679403279508153e-01 +7.3527003452182820e+00 +1.3160632577523689e-02 -1.6499509727152835e+00 +1.7921535545771658e+03 -1.0366257877149005e+05 -2.3352178999035440e+07 
+9.9999999999999989e-01 -5.3679396857628625e-01 +7.3526919017047732e+00 +2.0054162766654716e-02 -1.8614721459308747e+00 +1.6965309179172032e+03 -1.0220585835392028e+05 -2.3033038174824659e+07 
+1.0999999999999999e+00 -5.3679390930429016e-01 +7.3526829601178765e+00 +2.6754880430892459e-02 -2.0628694698601358e+00 +1.6038193649929490e+03 -1.0081746951442707e+05 -2.2725781553758953e+07 
+1.2000000000000000e+00 -5.3679385521092693e-01 +7.3526735664611698e+00 +3.3280055540424368e-02 -2.2538595689324210e+00 +1.5136815566853970e+03 -9.9500080006299278e+04 -2.2428520644146517e+07 
+1.3000000000000000e+00 -5.3679380652802022e-01 +7.3526637667358656e+00 +3.9646957248046531e-02 -2.4341589859198827e+00 +1.4257801663130749e+03 -9.8256358138806390e+04 -2.2139367002921015e+07 
+1.4000000000000001e+00 -5.3679376348738628e-01 +7.3526536069493975e+00 +4.5872853118942895e-02 -2.6034844468088290e+00 +1.3397779002767131e+03 -9.7088971206182658e+04 -2.1856432348569676e+07 
+1.5000000000000002e+00 -5.3679372632084565e-01 +7.3526431331046291e+00 +5.1975011200428564e-02 -2.7615525502969112e+00 +1.2553374568766085e+03 -9.6000587285799877e+04 -2.1577828362874199e+07 
+1.6000000000000003e+00 -5.3679369526023213e-01 +7.3526323912104274e+00 +5.7970701042348000e-02 -2.9080800524048263e+00 +1.1721215030002206e+03 -9.4993873660696278e+04 -2.1301666564731296e+07 
+1.7000000000000004e+00 -5.3679367053734950e-01 +7.3526214272677333e+00 +6.3877187913330857e-02 -3.0427834904739384e+00 +1.0897927898094351e+03 -9.4071498928412111e+04 -2.1026058878910508e+07 
+1.8000000000000005e+00 -5.3679365238404486e-01 +7.3526102872883747e+00 +6.9711742057222428e-02 -3.1653797108311759e+00 +1.0080139747891392e+03 -9.3236130000812715e+04 -2.0749116782637414e+07 
+1.9000000000000006e+00 -5.3679364103210936e-01 +7.3525990172805162e+00 +7.5491626875651474e-02 -3.2755854481047404e+00 +9.2644784219494750e+02 -9.2490434547671379e+04 -2.0468952343257662e+07 
+2.0000000000000004e+00 -5.3679363671339009e-01 +7.3525876632513238e+00 +8.1234111871147985e-02 -3.3731174151963863e+00 +8.4475706315196658e+02 -9.1837080448488385e+04 -2.0183677092199545e+07 
+2.1000000000000005e+00 -5.3679363954862658e-01 +7.3525763042438284e+00 +8.6947972185176539e-02 -3.4584136874924081e+00 +7.6274922965138273e+02 -9.1275576743491969e+04 -1.9892058689681783e+07 
+2.2000000000000006e+00 -5.3679364921476225e-01 +7.3525651522993565e+00 +9.2607641863802020e-02 -3.5348258796672813e+00 +6.8081974504570155e+02 -9.0792634941229131e+04 -1.9595524099803545e+07 
+2.3000000000000007e+00 -5.3679366527793426e-01 +7.3525544529324884e+00 +9.8178875746871536e-02 -3.6064412060512736e+00 +5.9951306571069165e+02 -9.0371726517666146e+04 -1.9296174152208786e+07 
+2.4000000000000008e+00 -5.3679368730424271e-01 +7.3525444516666498e+00 +1.0362742289843394e-01 -3.6773471526909089e+00 +5.1937376755946821e+02 -8.9996321425197908e+04 -1.8996110267093174e+07 
+2.5000000000000009e+00 -5.3679371485984451e-01 +7.3525353940248079e+00 +1.0891903770135956e-01 -3.7516311984931718e+00 +4.4094633495639624e+02 -8.9649889733177552e+04 -1.8697433446214776e+07 
+2.6000000000000010e+00 -5.3679374751089737e-01 +7.3525275255424560e+00 +1.1401947363390062e-01 -3.8333811860267644e+00 +3.6477527720258661e+02 -8.9315899505624126e+04 -1.8402244825450081e+07 
+2.7000000000000011e+00 -5.3679378482357099e-01 +7.3525210917529664e+00 +1.1889448419154192e-01 -3.9266849144876201e+00 +2.9140511259592950e+02 -8.8977819110052253e+04 -1.8112645600579232e+07 
+2.8000000000000012e+00 -5.3679382636407846e-01 +7.3525163382019976e+00 +1.2350982684994505e-01 -4.0356305385312217e+00 +2.2138029323665114e+02 -8.8619114965309229e+04 -1.7830736670399319e+07 
+2.9000000000000012e+00 -5.3679387169863169e-01 +7.3525135104395796e+00 +1.2783125720098551e-01 -4.1643063631723027e+00 +1.5524532004352079e+02 -8.8223252662957835e+04 -1.7558619194409452e+07 
+3.0000000000000013e+00 -5.3679392039347384e-01 +7.3525128540185500e+00 +1.3182453286195883e-01 -4.3168007716441767e+00 +9.3544666459218078e+01 -8.7773697468147424e+04 -1.7298394221114241e+07 
+3.1000000000000014e+00 -5.3679397201487533e-01 +7.3525146145043685e+00 +1.3545541316339241e-01 -4.4972025328592364e+00 +3.6822786487531516e+01 -8.7253912473694523e+04 -1.7052162734593865e+07 
+3.2000000000000015e+00 -5.3679402612912941e-01 +7.3525190374659442e+00 +1.3868965845515779e-01 -4.7096005328359700e+00 -1.4375873777648696e+01 -8.6647360170258369e+04 -1.6822025703093626e+07 
+3.3000000000000016e+00 -5.3679408230255121e-01 +7.3525263684830851e+00 +1.4149302951881410e-01 -4.9580839749873400e+00 -5.9506859954474976e+01 -8.5937501336683083e+04 -1.6610084169432174e+07 
+3.4000000000000017e+00 -5.3679414010149196e-01 +7.3525368531411983e+00 +1.4383128965977232e-01 -5.2467422508922184e+00 -9.8025752090477198e+01 -8.5107795713610190e+04 -1.6418439039911654e+07 
+3.5000000000000018e+00 -5.3679419909233539e-01 +7.3525507370366094e+00 +1.4567020422639482e-01 -5.5796650764732894e+00 -1.2938815526473473e+02 -8.4141701280802998e+04 -1.6249191128347335e+07 
+3.6000000000000019e+00 -5.3679425884149978e-01 +7.3525682657723808e+00 +1.4697554046478040e-01 -5.9609423799108621e+00 -1.5304969354932635e+02 -8.3022674878097969e+04 -1.6104441194814773e+07 
+3.7000000000000020e+00 -5.3679431891541429e-01 +7.3525896849606021e+00 +1.4771306411037879e-01 -6.3946643713720839e+00 -1.6846594183870948e+02 -8.1734171797563322e+04 -1.5986290277955733e+07 
+3.8000000000000020e+00 -5.3679437888057679e-01 +7.3526152402256146e+00 +1.4784854754000318e-01 -6.8849216346867985e+00 -1.7509258881819096e+02 -8.0259645262056816e+04 -1.5896838897180110e+07 
+3.9000000000000021e+00 -5.3679443830349427e-01 +7.3526451771991344e+00 +1.4734776152618087e-01 -7.4358049799085668e+00 -1.7238527223959616e+02 -7.8582547298349222e+04 -1.5838187858495953e+07 
+4.0000000000000018e+00 -5.3679449675073143e-01 +7.3526797415241916e+00 +1.4617648126267438e-01 -8.0514055711736852e+00 -1.5979969506276402e+02 -7.6686327973831401e+04 -1.5812437697780488e+07 
+4.1000000000000014e+00 -5.3679455390739284e-01 +7.3527190530486211e+00 +1.4431211552684256e-01 -8.7337201608324957e+00 -1.3696505279108993e+02 -7.4562311005565760e+04 -1.5821138602265328e+07 
+4.2000000000000011e+00 -5.3679460993072348e-01 +7.3527627274920819e+00 +1.4178175330399637e-01 -9.4764428776018796e+00 -1.0425566206318730e+02 -7.2232158008688770e+04 -1.5863456484855967e+07 
+4.3000000000000007e+00 -5.3679466509560414e-01 +7.3528102542274985e+00 +1.3862570740297153e-01 -1.0271211556072767e+01 -6.2245097618945415e+01 -6.9724811381568477e+04 -1.5937915870966800e+07 
+4.4000000000000004e+00 -5.3679471967689241e-01 +7.3528611226192711e+00 +1.3488428984817191e-01 -1.1109663759176893e+01 -1.1506942230146544e+01 -6.7069214910727358e+04 -1.6043041201256383e+07 
+4.5000000000000000e+00 -5.3679477394939679e-01 +7.3529148220224974e+00 +1.3059780959832867e-01 -1.1983436758505633e+01 +4.7385252996225226e+01 -6.4294313881816699e+04 -1.6177357012970859e+07 
+4.5999999999999996e+00 -5.3679482818787794e-01 +7.3529708417931907e+00 +1.2580657252541980e-01 -1.2884167818467755e+01 +1.1385796817403194e+02 -6.1429053451402098e+04 -1.6339387934903350e+07 
+4.6999999999999993e+00 -5.3679488266707120e-01 +7.3530286712703425e+00 +1.2055088460551165e-01 -1.3803493692182672e+01 +1.8733764979046151e+02 -5.8502381498863695e+04 -1.6527658369108884e+07 
+4.7999999999999989e+00 -5.3679493766164987e-01 +7.3530877997894439e+00 +1.1487104762665515e-01 -1.4733050983135691e+01 +2.6725079296137591e+02 -5.5543246597750673e+04 -1.6740692885817055e+07 
+4.8999999999999986e+00 -5.3679499344624337e-01 +7.3531477166752213e+00 +1.0880736112746417e-01 -1.5664475962320301e+01 +3.5302390369020412e+02 -5.2580598987337413e+04 -1.6977016042179640e+07 
+4.9999999999999982e+00 -5.3679505029543106e-01 +7.3532079112416353e+00 +1.0240012279239834e-01 -1.6589404551228714e+01 +4.4408348426822351e+02 -4.9643390692807865e+04 -1.7235152294829588e+07 
+5.0999999999999979e+00 -5.3679510848372380e-01 +7.3532678727944685e+00 +9.5689625514925367e-02 -1.7499472389500507e+01 +5.3985609394276742e+02 -4.6760575131100872e+04 -1.7513626303762477e+07 
+5.1999999999999975e+00 -5.3679516828558038e-01 +7.3533270906259149e+00 +8.8716160286323745e-02 -1.8386314693635249e+01 +6.3976828512732288e+02 -4.3961107881546428e+04 -1.7810962604587425e+07 
+5.2999999999999972e+00 -5.3679522997541329e-01 +7.3533850540173820e+00 +8.1520016484985830e-02 -1.9241566326035979e+01 +7.4324660296280126e+02 -4.1273946289071893e+04 -1.8125685621862710e+07 
+5.3999999999999968e+00 -5.3679529382753643e-01 +7.3534412522360446e+00 +7.4141476215197386e-02 -2.0056861686324943e+01 +8.4971768684232040e+02 -3.8728050105822200e+04 -1.8456320138983782e+07 
+5.4999999999999964e+00 -5.3679536011623463e-01 +7.3534951745393835e+00 +6.6620822482035422e-02 -2.0823834855703229e+01 +9.5860811605595529e+02 -3.6352380596998992e+04 -1.8801390563828412e+07 
+5.5999999999999961e+00 -5.3679542911568756e-01 +7.3535463101682028e+00 +5.8998331053411478e-02 -2.1534119385580674e+01 +1.0693445555887020e+03 -3.4175901779219850e+04 -1.9159421603059515e+07 
+5.6999999999999957e+00 -5.3679550110002183e-01 +7.3535941483491767e+00 +5.1314275924041322e-02 -2.2179348368555257e+01 +1.1813536601727892e+03 -3.2227579988668782e+04 -1.9528937826541308e+07 
+5.7999999999999954e+00 -5.3679557634328501e-01 +7.3536381782963236e+00 +4.3608927046649849e-02 -2.2751154480197137e+01 +1.2940621091111257e+03 -3.0536383631736986e+04 -1.9908463812975880e+07 
+5.8999999999999950e+00 -5.3679565511944916e-01 +7.3536778892064838e+00 +3.5922550481481276e-02 -2.3241169847444485e+01 +1.4068966055997157e+03 -2.9131283924963012e+04 -2.0296524152089920e+07 
+5.9999999999999947e+00 -5.3679573770238309e-01 +7.3537127702595777e+00 +2.8295405893014491e-02 -2.3641026047190547e+01 +1.5192839176643529e+03 -2.8041254911023734e+04 -2.0691643624269318e+07 
+6.0999999999999943e+00 -5.3679582433512874e-01 +7.3537424464539436e+00 +2.0762870160140993e-02 -2.3944728915773322e+01 +1.6307348338095094e+03 -2.7286855670721754e+04 -2.1092563705342956e+07 
+6.1999999999999940e+00 -5.3679591513785718e-01 +7.3537670876701675e+00 +1.3335283668568466e-02 -2.4155725895028876e+01 +1.7411921365541200e+03 -2.6856369525911959e+04 -2.1499226090647146e+07 
+6.2999999999999936e+00 -5.3679601019993450e-01 +7.3537870006080031e+00 +6.0153226098061787e-03 -2.4279809699043369e+01 +1.8507308975869928e+03 -2.6730403944432976e+04 -2.1911954434046209e+07 
+6.3999999999999932e+00 -5.3679610961073265e-01 +7.3538024919689784e+00 -1.1943383191889809e-03 -2.4322773124735242e+01 +1.9594262367929321e+03 -2.6889565962903598e+04 -2.2331072645237833e+07 
+6.4999999999999929e+00 -5.3679621345967021e-01 +7.3538138684460828e+00 -8.2910206206435536e-03 -2.4290408785832923e+01 +2.0673532276662463e+03 -2.7314463540665431e+04 -2.2756904469622564e+07 
+6.5999999999999925e+00 -5.3679632183620662e-01 +7.3538214367341750e+00 -1.5272042710296590e-02 -2.4188509394271385e+01 +2.1745869082255640e+03 -2.7985703989112677e+04 -2.3189773529216398e+07 
+6.6999999999999922e+00 -5.3679643482979800e-01 +7.3538255035235505e+00 -2.2134725824530205e-02 -2.4022867608007665e+01 +2.2812023997373535e+03 -2.8883894770327948e+04 -2.3630003907364696e+07 
+6.7999999999999918e+00 -5.3679655252997049e-01 +7.3538263754988327e+00 -2.8876384681572716e-02 -2.3799275979000722e+01 +2.3872747240095041e+03 -2.9989643855708735e+04 -2.4077919260689504e+07 
+6.8999999999999915e+00 -5.3679667502624684e-01 +7.3538243593434922e+00 -3.5494337078904856e-02 -2.3523527080209131e+01 +2.4928789931068623e+03 -3.1283559011866695e+04 -2.4533843743603677e+07 
+6.9999999999999911e+00 -5.3679680240822214e-01 +7.3538197617357630e+00 -4.1985894121062163e-02 -2.3201413412672000e+01 +2.5980902209979299e+03 -3.2746248267111652e+04 -2.4998101103443153e+07 
+7.0999999999999908e+00 -5.3679693476550150e-01 +7.3538128893539705e+00 -4.8348368694357886e-02 -2.2838727552228647e+01 +2.7029834881151555e+03 -3.4358319092484613e+04 -2.5471015470399488e+07 
+7.1999999999999904e+00 -5.3679707218773509e-01 +7.3538040488691054e+00 -5.4579070848376009e-02 -2.2441261934146620e+01 +2.8076338559974038e+03 -3.6100379659108468e+04 -2.5952910960330751e+07 
+7.2999999999999901e+00 -5.3679721476462405e-01 +7.3537935469530931e+00 -6.0675307193184057e-02 -2.2014809087996777e+01 +2.9121163530693175e+03 -3.7953037491601484e+04 -2.6444111595136277e+07 
+7.3999999999999897e+00 -5.3679736258591049e-01 +7.3537816902691668e+00 -6.6634382352907098e-02 -2.1565161386220236e+01 +3.0165060078562346e+03 -3.9896900857421831e+04 -2.6944941477592561e+07 
+7.4999999999999893e+00 -5.3679751574135826e-01 +7.3537687854822416e+00 -7.2453601355789474e-02 -2.1098111320879429e+01 +3.1208778922261654e+03 -4.1912577232337273e+04 -2.7455724989472508e+07 
+7.5999999999999890e+00 -5.3679767432080838e-01 +7.3537551392492562e+00 -7.8130263292165741e-02 -2.0619451242248097e+01 +3.2253070079754830e+03 -4.3980674773098777e+04 -2.7976786270294271e+07 
+7.6999999999999886e+00 -5.3679783841414530e-01 +7.3537410582246947e+00 -8.3661664681494954e-02 -2.0134973514742359e+01 +3.3298683431231925e+03 -4.6081801430384701e+04 -2.8508449464196865e+07 
+7.7999999999999883e+00 -5.3679800811127676e-01 +7.3537268490639240e+00 -8.9045103667948433e-02 -1.9650470617101114e+01 +3.4346369651540490e+03 -4.8196564367267500e+04 -2.9051039197747502e+07 
+7.8999999999999879e+00 -5.3679818350218311e-01 +7.3537128184118847e+00 -9.4277871912012728e-02 -1.9171734817595851e+01 +3.5396878532460946e+03 -5.0305571830327943e+04 -2.9604879745489269e+07 
+7.9999999999999876e+00 -5.3679836467688646e-01 +7.3536992729157822e+00 -9.9357260601894148e-02 -1.8704558575010282e+01 +3.6450960247502790e+03 -5.2389430685826519e+04 -3.0170295654085226e+07 
+8.0999999999999872e+00 -5.3679855170458957e-01 +7.3536864650390124e+00 -1.0428272036715502e-01 -1.8254028371307811e+01 +3.7509165551822193e+03 -5.4429418802955639e+04 -3.0747342861020051e+07 
+8.1999999999999869e+00 -5.3679874458096277e-01 +7.3536744252857824e+00 -1.0905796143439198e-01 -1.7822065056581405e+01 +3.8570554752233838e+03 -5.6411735065838388e+04 -3.1334808878480211e+07 
+8.2999999999999865e+00 -5.3679894328568600e-01 +7.3536631272010426e+00 -1.1368665448999606e-01 -1.7409715891556289e+01 +3.9633633347205568e+03 -5.8324297733948632e+04 -3.1931109812095731e+07 
+8.3999999999999861e+00 -5.3679914779843318e-01 +7.3536525443440359e+00 -1.1817246985379394e-01 -1.7018028534690643e+01 +4.0696906688848785e+03 -6.0155023004542025e+04 -3.2534661712061055e+07 
+8.4999999999999858e+00 -5.3679935809888657e-01 +7.3536426502791912e+00 -1.2251907422036208e-01 -1.6648050788085719e+01 +4.1758879303080621e+03 -6.1891826586566662e+04 -3.3143880226319283e+07 
+8.5999999999999854e+00 -5.3679957416673374e-01 +7.3536334185871590e+00 -1.2673013199558658e-01 -1.6300830901834139e+01 +4.2818055159295182e+03 -6.3522621988574669e+04 -3.3757180730022907e+07 
+8.6999999999999851e+00 -5.3679979598169758e-01 +7.3536248228526802e+00 -1.3080930133919316e-01 -1.5977417226824421e+01 +4.3872936943533650e+03 -6.5035322531645870e+04 -3.4372977990024224e+07 
+8.7999999999999847e+00 -5.3680002352349376e-01 +7.3536168366758377e+00 -1.3476023876751450e-01 -1.5678858544256297e+01 +4.4922026854809756e+03 -6.6417839437942428e+04 -3.4989686522168212e+07 
+8.8999999999999844e+00 -5.3680025677184851e-01 +7.3536094336667022e+00 -1.3858659791771166e-01 -1.5406203900263881e+01 +4.5963826463426603e+03 -6.7658082831240361e+04 -3.5605720550511070e+07 
+8.9999999999999840e+00 -5.3680049570651134e-01 +7.3536025874456392e+00 -1.4229202678693995e-01 -1.5160502622058289e+01 +4.6996836077694570e+03 -6.8743961633129729e+04 -3.6219493676466420e+07 
+9.0999999999999837e+00 -5.3680074030723934e-01 +7.3535962716461549e+00 -1.4588017064361164e-01 -1.4942804395844151e+01 +4.8019555397185004e+03 -6.9663383128259156e+04 -3.6829419219388902e+07 
+9.1999999999999833e+00 -5.3680099055380048e-01 +7.3535904599139528e+00 -1.4935467088510285e-01 -1.4754159241121368e+01 +4.9030483210089706e+03 -7.0404253133546605e+04 -3.7433910047868900e+07 
+9.2999999999999829e+00 -5.3680124642597438e-01 +7.3535851259063394e+00 -1.5271916517073886e-01 -1.4595617482624121e+01 +5.0028117454024778e+03 -7.0954476187556647e+04 -3.8031378620570913e+07 
+9.3999999999999826e+00 -5.3680150790355696e-01 +7.3535802432953341e+00 -1.5597728652730478e-01 -1.4468229858052524e+01 +5.1010955020071524e+03 -7.1301954896652649e+04 -3.8620236886552453e+07 
+9.4999999999999822e+00 -5.3680177496636672e-01 +7.3535757857656776e+00 -1.5913266299962747e-01 -1.4373047438594879e+01 +5.1977491721083697e+03 -7.1434590459740328e+04 -3.9198896280117281e+07 
+9.5999999999999819e+00 -5.3680204759421168e-01 +7.3535717270146428e+00 -1.6218892108203331e-01 -1.4311121640964695e+01 +5.2926222882367629e+03 -7.1340282568198250e+04 -3.9765767986357138e+07 
+9.6999999999999815e+00 -5.3680232576693143e-01 +7.3535680407522017e+00 -1.6514968103067387e-01 -1.4283504217266126e+01 +5.3855642507383591e+03 -7.1006929513999348e+04 -4.0319262560273334e+07 
+9.7999999999999812e+00 -5.3680260946438396e-01 +7.3535647007096268e+00 -1.6801855787813982e-01 -1.4291247509160762e+01 +5.4764243403847722e+03 -7.0422426706969898e+04 -4.0857789968587480e+07 
+9.8999999999999808e+00 -5.3680289866643038e-01 +7.3535616806240878e+00 -1.7079916371448331e-01 -1.4335404000859878e+01 +5.5650517677295220e+03 -6.9574669291377577e+04 -4.1379759844043106e+07 
+9.9999999999999805e+00 -5.3680319335294979e-01 +7.3535589542530646e+00 -1.7349510602515703e-01 -1.4417026682036266e+01 +5.6512956443593694e+03 -6.8451550366029027e+04 -4.1883581374585606e+07 
+1.0099999999999980e+01 -5.3680349357942303e-01 +7.3535565015661275e+00 -1.7610484877947127e-01 -1.4536638682746688e+01 +5.7349500263449072e+03 -6.7046179701300993e+04 -4.2367624119479075e+07 
