# field on trajectory
# s[mm] rx[mm] ry[mm] rz[mm] bx[T] by[T] bz[T]
0.0000000000000000e+00 +8.1529999999999987e+00 +0.0000000000000000e+00 +0.0000000000000000e+00 -3.1330630415669032e-02 -5.6446260925228176e-01 +5.5902975368167900e-03
1.0000000000000001e-01 +8.1529997170787709e+00 +0.0000000000000000e+00 +9.9999999999466377e-02 -3.1330779901759330e-02 -5.6446259747114269e-01 +5.5903299048199861e-03
2.0000000000000001e-01 +8.1529988683150965e+00 +0.0000000000000000e+00 +1.9999999999573098e-01 -3.1330929191814953e-02 -5.6446259351232653e-01 +5.5903643169249295e-03
3.0000000000000004e-01 +8.1529974537089771e+00 +0.0000000000000000e+00 +2.9999999998559201e-01 -3.1331078428125526e-02 -5.6446259709744573e-01 +5.5904008193818572e-03
4.0000000000000002e-01 +8.1529954732604111e+00 +0.0000000000000000e+00 +3.9999999996584773e-01 -3.1331227752983075e-02 -5.6446260794811642e-01 +5.5904394584418713e-03
5.0000000000000000e-01 +8.1529929269693859e+00 +0.0000000000000000e+00 +4.9999999993329636e-01 -3.1331377308681942e-02 -5.6446262578595752e-01 +5.5904802803569287e-03
5.9999999999999998e-01 +8.1529898148358839e+00 +0.0000000000000000e+00 +5.9999999988473607e-01 -3.1331527237519086e-02 -5.6446265033259069e-01 +5.5905233313798446e-03
6.9999999999999996e-01 +8.1529861368598819e+00 +0.0000000000000000e+00 +6.9999999981696515e-01 -3.1331677681793894e-02 -5.6446268130963750e-01 +5.5905686577642612e-03
7.9999999999999993e-01 +8.1529818930413480e+00 +0.0000000000000000e+00 +7.9999999972678171e-01 -3.1331828783808469e-02 -5.6446271843872087e-01 +5.5906163057646641e-03
8.9999999999999991e-01 +8.1529770833802466e+00 +0.0000000000000000e+00 +8.9999999961098409e-01 -3.1331980685867553e-02 -5.6446276144146224e-01 +5.5906663216363480e-03
9.9999999999999989e-01 +8.1529717078765334e+00 +0.0000000000000000e+00 +9.9999999946637053e-01 -3.1332133530278673e-02 -5.6446281003948229e-01 +5.5907187516354281e-03
1.0999999999999999e+00 +8.1529657665301603e+00 +0.0000000000000000e+00 +1.0999999992897391e+00 -3.1332287459352175e-02 -5.6446286395439826e-01 +5.5907736420188090e-03
1.2000000000000000e+00 +8.1529592593410740e+00 +0.0000000000000000e+00 +1.1999999990778882e+00 -3.1332442615401343e-02 -5.6446292290782474e-01 +5.5908310390442029e-03
1.3000000000000000e+00 +8.1529521863092143e+00 +0.0000000000000000e+00 +1.2999999988276159e+00 -3.1332599140742358e-02 -5.6446298662137206e-01 +5.5908909889700893e-03
1.4000000000000001e+00 +8.1529445474345188e+00 +0.0000000000000000e+00 +1.3999999985357203e+00 -3.1332757177694508e-02 -5.6446305481664472e-01 +5.5909535380557216e-03
1.5000000000000002e+00 +8.1529363427169184e+00 +0.0000000000000000e+00 +1.4999999981990000e+00 -3.1332916868580175e-02 -5.6446312721524228e-01 +5.5910187325611208e-03
1.6000000000000003e+00 +8.1529275721563419e+00 +0.0000000000000000e+00 +1.5999999978142529e+00 -3.1333078355724846e-02 -5.6446320353875545e-01 +5.5910866187470565e-03
1.7000000000000004e+00 +8.1529182357527112e+00 +0.0000000000000000e+00 +1.6999999973782773e+00 -3.1333241781457369e-02 -5.6446328350876906e-01 +5.5911572428750424e-03
1.8000000000000005e+00 +8.1529083335059482e+00 +0.0000000000000000e+00 +1.7999999968878715e+00 -3.1333407288109849e-02 -5.6446336684685838e-01 +5.5912306512073259e-03
1.9000000000000006e+00 +8.1528978654159694e+00 +0.0000000000000000e+00 +1.8999999963398335e+00 -3.1333575018017729e-02 -5.6446345327458869e-01 +5.5913068900068736e-03
2.0000000000000004e+00 +8.1528868314826894e+00 +0.0000000000000000e+00 +1.9999999957309618e+00 -3.1333745113520002e-02 -5.6446354251351505e-01 +5.5913860055373712e-03
2.1000000000000005e+00 +8.1528752317060178e+00 +0.0000000000000000e+00 +2.0999999950580541e+00 -3.1333917596559402e-02 -5.6446363429331081e-01 +5.5914680121130931e-03
2.2000000000000006e+00 +8.1528630660858621e+00 +0.0000000000000000e+00 +2.1999999943179089e+00 -3.1334092007479136e-02 -5.6446372837616254e-01 +5.5915527962486552e-03
2.3000000000000007e+00 +8.1528503346221299e+00 +0.0000000000000000e+00 +2.2999999935073245e+00 -3.1334267766213689e-02 -5.6446382453239030e-01 +5.5916402125094676e-03
2.4000000000000008e+00 +8.1528370373147254e+00 +0.0000000000000000e+00 +2.3999999926230990e+00 -3.1334444292686163e-02 -5.6446392253232081e-01 +5.5917301154619027e-03
2.5000000000000009e+00 +8.1528231741635508e+00 +0.0000000000000000e+00 +2.4999999916620310e+00 -3.1334621006806798e-02 -5.6446402214628810e-01 +5.5918223596733065e-03
2.6000000000000010e+00 +8.1528087451685050e+00 +0.0000000000000000e+00 +2.5999999906209181e+00 -3.1334797328471553e-02 -5.6446412314463568e-01 +5.5919167997120142e-03
2.7000000000000011e+00 +8.1527937503294883e+00 +0.0000000000000000e+00 +2.6999999894965589e+00 -3.1334972677560649e-02 -5.6446422529771656e-01 +5.5920132901473730e-03
2.8000000000000012e+00 +8.1527781896463996e+00 +0.0000000000000000e+00 +2.7999999882857511e+00 -3.1335146473937141e-02 -5.6446432837589544e-01 +5.5921116855497666e-03
2.9000000000000012e+00 +8.1527620631191358e+00 +0.0000000000000000e+00 +2.8999999869852933e+00 -3.1335318137445431e-02 -5.6446443214954833e-01 +5.5922118404906143e-03
3.0000000000000013e+00 +8.1527453707475921e+00 +0.0000000000000000e+00 +2.9999999855919834e+00 -3.1335487087909869e-02 -5.6446453638906591e-01 +5.5923136095424146e-03
3.1000000000000014e+00 +8.1527281125316655e+00 +0.0000000000000000e+00 +3.0999999841026198e+00 -3.1335652745133294e-02 -5.6446464086485271e-01 +5.5924168472787457e-03
3.2000000000000015e+00 +8.1527102884712530e+00 +0.0000000000000000e+00 +3.1999999825140009e+00 -3.1335814528895597e-02 -5.6446474534732993e-01 +5.5925214082742916e-03
3.3000000000000016e+00 +8.1526918985662498e+00 +0.0000000000000000e+00 +3.2999999808229243e+00 -3.1335971858952275e-02 -5.6446484960693455e-01 +5.5926271471048554e-03
3.4000000000000017e+00 +8.1526729428165510e+00 +0.0000000000000000e+00 +3.3999999790261888e+00 -3.1336124155032993e-02 -5.6446495341412339e-01 +5.5927339183473928e-03
3.5000000000000018e+00 +8.1526534212220536e+00 +0.0000000000000000e+00 +3.4999999771205923e+00 -3.1336270836840097e-02 -5.6446505653937051e-01 +5.5928415765800019e-03
3.6000000000000019e+00 +8.1526333337826546e+00 +0.0000000000000000e+00 +3.5999999751029326e+00 -3.1336411324047249e-02 -5.6446515875317216e-01 +5.5929499763819725e-03
3.7000000000000020e+00 +8.1526126804982528e+00 +0.0000000000000000e+00 +3.6999999729700082e+00 -3.1336545036297930e-02 -5.6446525982604590e-01 +5.5930589723337965e-03
3.8000000000000020e+00 +8.1525914613687469e+00 +0.0000000000000000e+00 +3.7999999707186176e+00 -3.1336671393204021e-02 -5.6446535952853205e-01 +5.5931684190171707e-03
3.9000000000000021e+00 +8.1525696763940392e+00 +0.0000000000000000e+00 +3.8999999683455586e+00 -3.1336789814344325e-02 -5.6446545763119438e-01 +5.5932781710150313e-03
4.0000000000000018e+00 +8.1525473255740302e+00 +0.0000000000000000e+00 +3.9999999658476293e+00 -3.1336899719263164e-02 -5.6446555390462250e-01 +5.5933880829115729e-03
4.1000000000000014e+00 +8.1525244089086240e+00 +0.0000000000000000e+00 +4.0999999632216282e+00 -3.1337000753253769e-02 -5.6446564836125546e-01 +5.5934980313247099e-03
4.2000000000000011e+00 +8.1525009263977282e+00 +0.0000000000000000e+00 +4.1999999604643534e+00 -3.1337093464726955e-02 -5.6446574198084520e-01 +5.5936079810018462e-03
4.3000000000000007e+00 +8.1524768780412487e+00 +0.0000000000000000e+00 +4.2999999575726031e+00 -3.1337178627882045e-02 -5.6446583598497091e-01 +5.5937179187194284e-03
4.4000000000000004e+00 +8.1524522638390913e+00 +0.0000000000000000e+00 +4.3999999545431745e+00 -3.1337257016926329e-02 -5.6446593159521130e-01 +5.5938278312497626e-03
4.5000000000000000e+00 +8.1524270837911619e+00 +0.0000000000000000e+00 +4.4999999513728666e+00 -3.1337329406076336e-02 -5.6446603003314655e-01 +5.5939377053607258e-03
4.5999999999999996e+00 +8.1524013378973628e+00 +0.0000000000000000e+00 +4.5999999480584775e+00 -3.1337396569559015e-02 -5.6446613252035382e-01 +5.5940475278154810e-03
4.6999999999999993e+00 +8.1523750261575909e+00 +0.0000000000000000e+00 +4.6999999445968061e+00 -3.1337459281613030e-02 -5.6446624027841186e-01 +5.5941572853721944e-03
4.7999999999999989e+00 +8.1523481485717397e+00 +0.0000000000000000e+00 +4.7999999409846499e+00 -3.1337518316490016e-02 -5.6446635452889604e-01 +5.5942669647837447e-03
4.8999999999999986e+00 +8.1523207051396955e+00 +0.0000000000000000e+00 +4.8999999372188068e+00 -3.1337574448455717e-02 -5.6446647649338078e-01 +5.5943765527974474e-03
4.9999999999999982e+00 +8.1522926958613358e+00 +0.0000000000000000e+00 +4.9999999332960749e+00 -3.1337628451791333e-02 -5.6446660739343790e-01 +5.5944860361547529e-03
5.0999999999999979e+00 +8.1522641207365307e+00 +0.0000000000000000e+00 +5.0999999292132525e+00 -3.1337681100794650e-02 -5.6446674845063616e-01 +5.5945954015909800e-03
5.1999999999999975e+00 +8.1522349797651401e+00 +0.0000000000000000e+00 +5.1999999249671376e+00 -3.1337733169781355e-02 -5.6446690088654117e-01 +5.5947046358350147e-03
5.2999999999999972e+00 +8.1522052729470111e+00 +0.0000000000000000e+00 +5.2999999205545292e+00 -3.1337785433086220e-02 -5.6446706592271456e-01 +5.5948137256090318e-03
5.3999999999999968e+00 +8.1521750002819804e+00 +0.0000000000000000e+00 +5.3999999159722245e+00 -3.1337838665064364e-02 -5.6446724478071375e-01 +5.5949226576282049e-03
5.4999999999999964e+00 +8.1521441617698684e+00 +0.0000000000000000e+00 +5.4999999112170217e+00 -3.1337893640092485e-02 -5.6446743868209182e-01 +5.5950314186004281e-03
5.5999999999999961e+00 +8.1521127574104817e+00 +0.0000000000000000e+00 +5.5999999062857189e+00 -3.1337951132570062e-02 -5.6446764884839606e-01 +5.5951399952260230e-03
5.6999999999999957e+00 +8.1520807872036123e+00 +0.0000000000000000e+00 +5.6999999011751150e+00 -3.1338011916920608e-02 -5.6446787650116881e-01 +5.5952483741974523e-03
5.7999999999999954e+00 +8.1520482511490311e+00 +0.0000000000000000e+00 +5.7999998958820074e+00 -3.1338076767592933e-02 -5.6446812286194548e-01 +5.5953565421990375e-03
5.8999999999999950e+00 +8.1520151492464912e+00 +0.0000000000000000e+00 +5.8999998904031941e+00 -3.1338146459062292e-02 -5.6446838915225583e-01 +5.5954644859066713e-03
5.9999999999999947e+00 +8.1519814814957279e+00 +0.0000000000000000e+00 +5.9999998847354732e+00 -3.1338221765831724e-02 -5.6446867659362165e-01 +5.5955721919875344e-03
6.0999999999999943e+00 +8.1519472478964552e+00 +0.0000000000000000e+00 +6.0999998788756429e+00 -3.1338303356179036e-02 -5.6446898589609273e-01 +5.5956796689389018e-03
6.1999999999999940e+00 +8.1519124484483623e+00 +0.0000000000000000e+00 +6.1999998728205012e+00 -3.1338391473388010e-02 -5.6446931572383618e-01 +5.5957870126104488e-03
6.2999999999999936e+00 +8.1518770831511205e+00 +0.0000000000000000e+00 +6.2999998665668464e+00 -3.1338486254501294e-02 -5.6446966422953282e-01 +5.5958943406954975e-03
6.3999999999999932e+00 +8.1518411520043816e+00 +0.0000000000000000e+00 +6.3999998601114765e+00 -3.1338587836574221e-02 -5.6447002956584280e-01 +5.5960017708932943e-03
6.4999999999999929e+00 +8.1518046550077816e+00 +0.0000000000000000e+00 +6.4999998534511887e+00 -3.1338696356675182e-02 -5.6447040988540576e-01 +5.5961094209093353e-03
6.5999999999999925e+00 +8.1517675921609403e+00 +0.0000000000000000e+00 +6.5999998465827820e+00 -3.1338811951886265e-02 -5.6447080334083988e-01 +5.5962174084556900e-03
6.6999999999999922e+00 +8.1517299634634632e+00 +0.0000000000000000e+00 +6.6999998395030538e+00 -3.1338934759303570e-02 -5.6447120808473983e-01 +5.5963258512513160e-03
6.7999999999999918e+00 +8.1516917689149473e+00 +0.0000000000000000e+00 +6.7999998322088020e+00 -3.1339064916037718e-02 -5.6447162226967740e-01 +5.5964348670223853e-03
6.8999999999999915e+00 +8.1516530085149785e+00 +0.0000000000000000e+00 +6.8999998246968257e+00 -3.1339202559214366e-02 -5.6447204404819951e-01 +5.5965445735026041e-03
6.9999999999999911e+00 +8.1516136822631360e+00 +0.0000000000000000e+00 +6.9999998169639213e+00 -3.1339347825974570e-02 -5.6447247157282820e-01 +5.5966550884335416e-03
7.0999999999999908e+00 +8.1515737901589915e+00 +0.0000000000000000e+00 +7.0999998090068877e+00 -3.1339500853475394e-02 -5.6447290299605868e-01 +5.5967665295649357e-03
7.1999999999999904e+00 +8.1515333322021153e+00 +0.0000000000000000e+00 +7.1999998008225230e+00 -3.1339661778890242e-02 -5.6447333647035902e-01 +5.5968790146550323e-03
7.2999999999999901e+00 +8.1514923083920721e+00 +0.0000000000000000e+00 +7.2999997924076245e+00 -3.1339830739409401e-02 -5.6447377014816935e-01 +5.5969926614708931e-03
7.3999999999999897e+00 +8.1514507187284302e+00 +0.0000000000000000e+00 +7.3999997837589904e+00 -3.1340007872240470e-02 -5.6447420218190103e-01 +5.5971075877887209e-03
7.4999999999999893e+00 +8.1514085632107580e+00 +0.0000000000000000e+00 +7.4999997748734186e+00 -3.1340193314608869e-02 -5.6447463072393500e-01 +5.5972239113941946e-03
7.5999999999999890e+00 +8.1513658418386274e+00 +0.0000000000000000e+00 +7.5999997657477065e+00 -3.1340387203758230e-02 -5.6447505392662156e-01 +5.5973417500827707e-03
7.6999999999999886e+00 +8.1513225546116157e+00 +0.0000000000000000e+00 +7.6999997563786522e+00 -3.1340589676950997e-02 -5.6447546994227971e-01 +5.5974612216600087e-03
7.7999999999999883e+00 +8.1512787015293071e+00 +0.0000000000000000e+00 +7.7999997467630546e+00 -3.1340800871468746e-02 -5.6447587692319501e-01 +5.5975824439419147e-03
7.8999999999999879e+00 +8.1512342825912949e+00 +0.0000000000000000e+00 +7.8999997368977102e+00 -3.1341020924612745e-02 -5.6447627302162073e-01 +5.5977055347552294e-03
7.9999999999999876e+00 +8.1511892977971847e+00 +0.0000000000000000e+00 +7.9999997267794178e+00 -3.1341249973704355e-02 -5.6447665638977407e-01 +5.5978306119377746e-03
8.0999999999999872e+00 +8.1511437471465928e+00 +0.0000000000000000e+00 +8.0999997164049748e+00 -3.1341487944294172e-02 -5.6447702560092827e-01 +5.5979577600220962e-03
8.1999999999999869e+00 +8.1510976306391498e+00 +0.0000000000000000e+00 +8.1999997057711802e+00 -3.1341733914769382e-02 -5.6447738091270383e-01 +5.5980869302779514e-03
8.2999999999999865e+00 +8.1510509482745022e+00 +0.0000000000000000e+00 +8.2999996948748311e+00 -3.1341986751711161e-02 -5.6447772300380528e-01 +5.5982180406511806e-03
8.3999999999999861e+00 +8.1510037000523088e+00 +0.0000000000000000e+00 +8.3999996837127249e+00 -3.1342245321686141e-02 -5.6447805255292793e-01 +5.5983510090789768e-03
8.4999999999999858e+00 +8.1509558859722393e+00 +0.0000000000000000e+00 +8.4999996722816604e+00 -3.1342508491245737e-02 -5.6447837023875680e-01 +5.5984857534896017e-03
8.5999999999999854e+00 +8.1509075060339775e+00 +0.0000000000000000e+00 +8.5999996605784350e+00 -3.1342775126925591e-02 -5.6447867673996621e-01 +5.5986221918020787e-03
8.6999999999999851e+00 +8.1508585602372179e+00 +0.0000000000000000e+00 +8.6999996485998459e+00 -3.1343044095244958e-02 -5.6447897273522141e-01 +5.5987602419259068e-03
8.7999999999999847e+00 +8.1508090485816656e+00 +0.0000000000000000e+00 +8.7999996363426920e+00 -3.1343314262706076e-02 -5.6447925890317630e-01 +5.5988998217607507e-03
8.8999999999999844e+00 +8.1507589710670345e+00 +0.0000000000000000e+00 +8.8999996238037706e+00 -3.1343584495793643e-02 -5.6447953592247468e-01 +5.5990408491961643e-03
8.9999999999999840e+00 +8.1507083276930494e+00 +0.0000000000000000e+00 +8.9999996109798790e+00 -3.1343853660974134e-02 -5.6447980447175039e-01 +5.5991832421112865e-03
9.0999999999999837e+00 +8.1506571184594403e+00 +0.0000000000000000e+00 +9.0999995978678161e+00 -3.1344120624695188e-02 -5.6448006522962679e-01 +5.5993269183745439e-03
9.1999999999999833e+00 +8.1506053433659496e+00 +0.0000000000000000e+00 +9.1999995844643809e+00 -3.1344384253385107e-02 -5.6448031887471584e-01 +5.5994717958433547e-03
9.2999999999999829e+00 +8.1505530024123249e+00 +0.0000000000000000e+00 +9.2999995707663690e+00 -3.1344643413452208e-02 -5.6448056608561981e-01 +5.5996177923638467e-03
9.3999999999999826e+00 +8.1505000955983178e+00 +0.0000000000000000e+00 +9.3999995567705792e+00 -3.1344896971284140e-02 -5.6448080754092989e-01 +5.5997648257705406e-03
9.4999999999999822e+00 +8.1504466229236900e+00 +0.0000000000000000e+00 +9.4999995424738106e+00 -3.1345143793247418e-02 -5.6448104391922738e-01 +5.5999128138860760e-03
9.5999999999999819e+00 +8.1503925843882055e+00 +0.0000000000000000e+00 +9.5999995278728587e+00 -3.1345382745686740e-02 -5.6448127589908126e-01 +5.6000616745209035e-03
9.6999999999999815e+00 +8.1503379799916331e+00 +0.0000000000000000e+00 +9.6999995129645242e+00 -3.1345612694924405e-02 -5.6448150415905107e-01 +5.6002113254729931e-03
9.7999999999999812e+00 +8.1502828097337456e+00 +0.0000000000000000e+00 +9.7999994977456026e+00 -3.1345832507259759e-02 -5.6448172937768448e-01 +5.6003616845275422e-03
9.8999999999999808e+00 +8.1502270736143192e+00 +0.0000000000000000e+00 +9.8999994822128929e+00 -3.1346041048968529e-02 -5.6448195223351949e-01 +5.6005126694566804e-03
9.9999999999999805e+00 +8.1501707716331335e+00 +0.0000000000000000e+00 +9.9999994663631924e+00 -3.1346237186302264e-02 -5.6448217340508178e-01 +5.6006641980191679e-03
1.0099999999999980e+01 +8.1501139037899666e+00 +0.0000000000000000e+00 +1.0099999450193300e+01 -3.1346420087146797e-02 -5.6448239366276909e-01 +5.6008161834750110e-03
1.0199999999999980e+01 +8.1500564700845999e+00 +0.0000000000000000e+00 +1.0199999433700013e+01 -3.1346590126037792e-02 -5.6448261414451351e-01 +5.6009685211392598e-03
1.0299999999999979e+01 +8.1499984705168149e+00 +0.0000000000000000e+00 +1.0299999416880128e+01 -3.1346747979208348e-02 -5.6448283608014249e-01 +5.6011211018544421e-03
1.0399999999999979e+01 +8.1499399050863897e+00 +0.0000000000000000e+00 +1.0399999399730445e+01 -3.1346894322925943e-02 -5.6448306069949683e-01 +5.6012738164786082e-03
1.0499999999999979e+01 +8.1498807737931021e+00 +0.0000000000000000e+00 +1.0499999382247761e+01 -3.1347029833493342e-02 -5.6448328923242974e-01 +5.6014265558857468e-03
1.0599999999999978e+01 +8.1498210766367247e+00 +0.0000000000000000e+00 +1.0599999364428873e+01 -3.1347155187249398e-02 -5.6448352290880821e-01 +5.6015792109662087e-03
1.0699999999999978e+01 +8.1497608136170232e+00 +0.0000000000000000e+00 +1.0699999346270580e+01 -3.1347271060569872e-02 -5.6448376295851488e-01 +5.6017316726271289e-03
1.0799999999999978e+01 +8.1496999847337612e+00 +0.0000000000000000e+00 +1.0799999327769680e+01 -3.1347378129868340e-02 -5.6448401061144449e-01 +5.6018838317928388e-03
1.0899999999999977e+01 +8.1496385899866919e+00 +0.0000000000000000e+00 +1.0899999308922970e+01 -3.1347477071596928e-02 -5.6448426709750921e-01 +5.6020355794052989e-03
1.0999999999999977e+01 +8.1495766293755594e+00 +0.0000000000000000e+00 +1.0999999289727247e+01 -3.1347568562247310e-02 -5.6448453364663587e-01 +5.6021868064245039e-03
1.1099999999999977e+01 +8.1495141029000973e+00 +0.0000000000000000e+00 +1.1099999270179312e+01 -3.1347653278351380e-02 -5.6448481148876706e-01 +5.6023374038289058e-03
1.1199999999999976e+01 +8.1494510105600302e+00 +0.0000000000000000e+00 +1.1199999250275960e+01 -3.1347731896482184e-02 -5.6448510185386314e-01 +5.6024872626158455e-03
1.1299999999999976e+01 +8.1493873523550686e+00 +0.0000000000000000e+00 +1.1299999230013990e+01 -3.1347805093254778e-02 -5.6448540597190078e-01 +5.6026362738019536e-03
1.1399999999999975e+01 +8.1493231282849106e+00 +0.0000000000000000e+00 +1.1399999209390199e+01 -3.1347873545326983e-02 -5.6448572507287442e-01 +5.6027843284235821e-03
1.1499999999999975e+01 +8.1492583383492363e+00 +0.0000000000000000e+00 +1.1499999188401384e+01 -3.1347937929400292e-02 -5.6448606038679638e-01 +5.6029313175372190e-03
1.1599999999999975e+01 +8.1491929825477136e+00 +0.0000000000000000e+00 +1.1599999167044345e+01 -3.1347998922220725e-02 -5.6448641314369830e-01 +5.6030771322199135e-03
1.1699999999999974e+01 +8.1491270608799908e+00 +0.0000000000000000e+00 +1.1699999145315878e+01 -3.1348057200579565e-02 -5.6448678457363011e-01 +5.6032216635696847e-03
1.1799999999999974e+01 +8.1490605733456967e+00 +0.0000000000000000e+00 +1.1799999123212782e+01 -3.1348113441314295e-02 -5.6448717590666131e-01 +5.6033648027059482e-03
