# multipoles
# s[mm] polynom_b[n=0][T/m^n] polynom_b[n=1][T/m^n] polynom_b[n=2][T/m^n] polynom_b[n=3][T/m^n] polynom_b[n=4][T/m^n] polynom_b[n=5][T/m^n] polynom_b[n=6][T/m^n] 
+0.0000000000000000e+00 -5.9276419031176431e-01 +8.1197250096130542e+00 -3.1113890868802080e-01 -2.3385137256673907e+01 +1.7344869794378558e+03 +9.3275618817879469e+04 -1.5635821367967013e+07 
+1.0000000000000001e-01 -5.9276420704091948e-01 +8.1197403000233006e+00 -3.1263628286739503e-01 -2.3983990293514410e+01 +1.7378665981878692e+03 +9.6605096174249644e+04 -1.5566141147627315e+07 
+2.0000000000000001e-01 -5.9276423654615817e-01 +8.1197586475838186e+00 -3.1410722399285501e-01 -2.4599314367415584e+01 +1.7410458818798963e+03 +9.9924279080889202e+04 -1.5495382446288051e+07 
+3.0000000000000004e-01 -5.9276427876607407e-01 +8.1197797198487383e+00 -3.1552933997145738e-01 -2.5226648843132111e+01 +1.7437492789819553e+03 +1.0321821886875470e+05 -1.5422706064650523e+07 
+4.0000000000000002e-01 -5.9276433363925674e-01 +8.1198031843667700e+00 -3.1688024000338205e-01 -2.5861532942474920e+01 +1.7457012654766474e+03 +1.0647196608599486e+05 -1.5347272937685292e+07 
+5.0000000000000000e-01 -5.9276440110430539e-01 +8.1198287086850520e+00 -3.1813753283882074e-01 -2.6499505841629428e+01 +1.7466263100590272e+03 +1.0967057102079671e+05 -1.5268243963855909e+07 
+5.9999999999999998e-01 -5.9276448109983271e-01 +8.1198559603527070e+00 -3.1927882639008981e-01 -2.7136106789229984e+01 +1.7462488679616686e+03 +1.1279908443283776e+05 -1.5184779979078909e+07 
+6.9999999999999996e-01 -5.9276457356444356e-01 +8.1198846069191628e+00 -3.2028173014910560e-01 -2.7766875048008362e+01 +1.7442934259456033e+03 +1.1584255719860765e+05 -1.5096041970497869e+07 
+7.9999999999999993e-01 -5.9276467843673386e-01 +8.1199143159301865e+00 -3.2112385487224143e-01 -2.8387349786690883e+01 +1.7404844924319102e+03 +1.1878603969609320e+05 -1.5001191019078573e+07 
+8.9999999999999991e-01 -5.9276479565530393e-01 +8.1199447549260970e+00 -3.2178281108901702e-01 -2.8993070033155991e+01 +1.7345465706239918e+03 +1.2161458156391572e+05 -1.4899388176164892e+07 
+9.9999999999999989e-01 -5.9276492515874912e-01 +8.1199755914506522e+00 -3.2223620996763103e-01 -2.9579574926888160e+01 +1.7262041727363237e+03 +1.2431323314825111e+05 -1.4789794526024088e+07 
+1.0999999999999999e+00 -5.9276506688566133e-01 +8.1200064930483062e+00 -3.2246166310287350e-01 -3.0142403635973480e+01 +1.7151818175455426e+03 +1.2686704501706664e+05 -1.4671571180609096e+07 
+1.2000000000000000e+00 -5.9276522077461058e-01 +8.1200371272533527e+00 -3.2243678459522340e-01 -3.0677095056954229e+01 +1.7012040659346324e+03 +1.2926106626930342e+05 -1.4543879436375352e+07 
+1.3000000000000000e+00 -5.9276538676417301e-01 +8.1200671616014741e+00 -3.2213918683808762e-01 -3.1179188138692346e+01 +1.6839954382860915e+03 +1.3148034638235669e+05 -1.4405880377977610e+07 
+1.4000000000000001e+00 -5.9276556479290421e-01 +8.1200962636274987e+00 -3.2154648484604931e-01 -3.1644221833624563e+01 +1.6632805018473578e+03 +1.3350993497926506e+05 -1.4256735305398276e+07 
+1.5000000000000002e+00 -5.9276575479934590e-01 +8.1201241008611920e+00 -3.2063629475636291e-01 -3.2067734948655229e+01 +1.6387838382131056e+03 +1.3533488089726094e+05 -1.4095605570967741e+07 
+1.6000000000000003e+00 -5.9276595672202448e-01 +8.1201503408255853e+00 -3.1938623284992462e-01 -3.2445266131965113e+01 +1.6102300189530715e+03 +1.3694023220941026e+05 -1.3921652449454924e+07 
+1.7000000000000004e+00 -5.9276617049943137e-01 +8.1201746510471313e+00 -3.1777391947082356e-01 -3.2772354143091924e+01 +1.5773436867587195e+03 +1.3831103773295929e+05 -1.3734037540882954e+07 
+1.8000000000000005e+00 -5.9276639607006543e-01 +8.1201966990424559e+00 -3.1577697261820342e-01 -3.3044537480451943e+01 +1.5398494290864733e+03 +1.3943234489792318e+05 -1.3531922158747852e+07 
+1.9000000000000006e+00 -5.9276663337238800e-01 +8.1202161523288066e+00 -3.1337301335057011e-01 -3.3257354690361524e+01 +1.4974718774384378e+03 +1.4028920157122758e+05 -1.3314467794194069e+07 
+2.0000000000000004e+00 -5.9276688234484509e-01 +8.1202326784137195e+00 -3.1053966362923935e-01 -3.3406344054420849e+01 +1.4499356726798251e+03 +1.4086665420174476e+05 -1.3080835968494631e+07 
+2.1000000000000005e+00 -5.9276714274775144e-01 +8.1202460230032063e+00 -3.0726859364675335e-01 -3.3488320031956505e+01 +1.3971364618371267e+03 +1.4115419971654812e+05 -1.2830736707531065e+07 
+2.2000000000000006e+00 -5.9276741362918395e-01 +8.1202562441732837e+00 -3.0360869793483330e-01 -3.3505130441591000e+01 +1.3396705931004446e+03 +1.4115858876366777e+05 -1.2566131070552103e+07 
+2.3000000000000007e+00 -5.9276769385917172e-01 +8.1202634780027161e+00 -2.9962343958134430e-01 -3.3459863607991018e+01 +1.2783137748318277e+03 +1.4089074644123219e+05 -1.2289556981707625e+07 
+2.4000000000000008e+00 -5.9276798230775796e-01 +8.1202678605743799e+00 -2.9537628100740942e-01 -3.3355607941881637e+01 +1.2138417098666985e+03 +1.4036159821977571e+05 -1.2003552355047826e+07 
+2.5000000000000009e+00 -5.9276827784493968e-01 +8.1202695279790476e+00 -2.9093068904843805e-01 -3.3195452069032839e+01 +1.1470301784591700e+03 +1.3958207073144353e+05 -1.1710655453178331e+07 
+2.6000000000000010e+00 -5.9276857934074889e-01 +8.1202686163031519e+00 -2.8635012709469176e-01 -3.2982484455655346e+01 +1.0786549036231277e+03 +1.3856308953563045e+05 -1.1413404285895305e+07 
+2.7000000000000011e+00 -5.9276888566520858e-01 +8.1202652616483526e+00 -2.8169805898687322e-01 -3.2719793979939190e+01 +1.0094916146813545e+03 +1.3731558244476284e+05 -1.1114336883864950e+07 
+2.8000000000000012e+00 -5.9276919568832487e-01 +8.1202596001197360e+00 -2.7703795117560859e-01 -3.2410469575958004e+01 +9.4031609622355961e+02 +1.3585047739750214e+05 -1.0815991551800774e+07 
+2.9000000000000012e+00 -5.9276950828011521e-01 +8.1202517678291528e+00 -2.7243326832445747e-01 -3.2057600346126918e+01 +8.7190410169081383e+02 +1.3417870315293089e+05 -1.0520906451008584e+07 
+3.0000000000000013e+00 -5.9276982231058384e-01 +8.1202419008963069e+00 -2.6794747713969008e-01 -3.1664275561380236e+01 +8.0503142838304370e+02 +1.3231118920052444e+05 -1.0231619959872970e+07 
+3.1000000000000014e+00 -5.9277013664975975e-01 +8.1202301354475495e+00 -2.6364404123955909e-01 -3.1233584654774820e+01 +7.4047381829627329e+02 +1.3025886578965838e+05 -9.9506701975677721e+06 
+3.2000000000000015e+00 -5.9277045016764374e-01 +8.1202166076225133e+00 -2.5958642806224241e-01 -3.0768617374751749e+01 +6.7900709341193760e+02 +1.2803266469770347e+05 -9.6805956792336926e+06 
+3.3000000000000016e+00 -5.9277076173426380e-01 +8.1202014535671712e+00 -2.5583810171915156e-01 -3.0272463605819940e+01 +6.2140701965601443e+02 +1.2564351824924075e+05 -9.4239346677401271e+06 
+3.4000000000000017e+00 -5.9277107021962838e-01 +8.1201848094419091e+00 -2.5246252934337610e-01 -2.9748213593533887e+01 +5.6844942578038399e+02 +1.2310236058350999e+05 -9.1832257318224311e+06 
+3.5000000000000018e+00 -5.9277137449376316e-01 +8.1201668114120853e+00 -2.4952317594306836e-01 -2.9198957664485945e+01 +5.2091010977308008e+02 +1.2042012600741854e+05 -8.9610073154537939e+06 
+3.6000000000000019e+00 -5.9277167342671366e-01 +8.1201475956609954e+00 -2.4708350450617236e-01 -2.8627786584242042e+01 +4.7956483810460230e+02 +1.1760775101167620e+05 -8.7598177225952279e+06 
+3.7000000000000020e+00 -5.9277196588848802e-01 +8.1201272983806110e+00 -2.4520698285419612e-01 -2.8037791323182681e+01 +4.4518947769119768e+02 +1.1467617299476582e+05 -8.5821957527034264e+06 
+3.8000000000000020e+00 -5.9277225074912832e-01 +8.1201060557767679e+00 -2.4395707566681366e-01 -2.7432063149477926e+01 +4.1855984877641316e+02 +1.1163633064130881e+05 -8.4306800088722687e+06 
+3.9000000000000021e+00 -5.9277252687869186e-01 +8.1200840040728597e+00 -2.4339724547718605e-01 -2.6813693791677270e+01 +4.0045173898644708e+02 +1.0849916501267908e+05 -8.3078089559197966e+06 
+4.0000000000000018e+00 -5.9277279314721976e-01 +8.1200612794981364e+00 -2.4359095795286648e-01 -2.6185775030629472e+01 +3.9164100874378050e+02 +1.0527561697651674e+05 -8.2161214292441234e+06 
+4.1000000000000014e+00 -5.9277304882072790e-01 +8.1200380196710551e+00 -2.4457844831145809e-01 -2.5551436080214906e+01 +3.9265034125282648e+02 +1.0197813883092398e+05 -8.1574638963890541e+06 
+4.2000000000000011e+00 -5.9277329475280449e-01 +8.1200143734638743e+00 -2.4630656448654623e-01 -2.4914283262723103e+01 +4.0298122102394655e+02 +9.8627621689757056e+04 -8.1309099354598243e+06 
+4.3000000000000007e+00 -5.9277353219506146e-01 +8.1199904940090750e+00 -2.4869867226881087e-01 -2.4278125348045428e+01 +4.2187770956811920e+02 +9.5247681637953501e+04 -8.1348404457954140e+06 
+4.4000000000000004e+00 -5.9277376239914092e-01 +8.1199665344288796e+00 -2.5167813372448389e-01 -2.3646770877188050e+01 +4.4858379820988307e+02 +9.1861933859667741e+04 -8.1676360037495159e+06 
+4.5000000000000000e+00 -5.9277398661668268e-01 +8.1199426478227590e+00 -2.5516831119771377e-01 -2.3024027822197549e+01 +4.8234348547768650e+02 +8.8493990728951656e+04 -8.2276772364590941e+06 
+4.5999999999999996e+00 -5.9277420609935261e-01 +8.1199189872786235e+00 -2.5909256491047256e-01 -2.2413703904159032e+01 +5.2240073932935388e+02 +8.5167463656596112e+04 -8.3133446625271505e+06 
+4.6999999999999993e+00 -5.9277442209886566e-01 +8.1198957058712100e+00 -2.6337424822083305e-01 -2.1819606555728175e+01 +5.6799939205694636e+02 +8.1905962909342154e+04 -8.4230181522063874e+06 
+4.7999999999999989e+00 -5.9277463586694079e-01 +8.1198729566456755e+00 -2.6793671495240728e-01 -2.1245542451058313e+01 +6.1838329485967381e+02 +7.8733094916337956e+04 -8.5550777055919673e+06 
+4.8999999999999986e+00 -5.9277484865531227e-01 +8.1198508926422459e+00 -2.7270331706382150e-01 -2.0695318228312917e+01 +6.7279626258868461e+02 +7.5672466491616782e+04 -8.7079031595976669e+06 
+4.9999999999999982e+00 -5.9277506171578775e-01 +8.1198296668696663e+00 -2.7759739775863734e-01 -2.0172739720144584e+01 +7.3048194960833109e+02 +7.2747680395173229e+04 -8.8798736183808874e+06 
+5.0999999999999979e+00 -5.9277527630015825e-01 +8.1198094323221817e+00 -2.8254230252233092e-01 -1.9681612461981626e+01 +7.9068405555582467e+02 +6.9982338337357229e+04 -9.0693684202005398e+06 
+5.1999999999999975e+00 -5.9277549366027560e-01 +8.1197903419661301e+00 -2.8746136990933524e-01 -1.9225741292441310e+01 +8.5264615388389120e+02 +6.7400038645857159e+04 -9.2747663329039663e+06 
+5.2999999999999972e+00 -5.9277571504799120e-01 +8.1197725487496690e+00 -2.9227793868568164e-01 -1.8808930658706405e+01 +9.1561182360348914e+02 +6.5024378114332212e+04 -9.4944461701432895e+06 
+5.3999999999999968e+00 -5.9277594171523140e-01 +8.1197562055903632e+00 -2.9691533878677767e-01 -1.8434984258595303e+01 +9.7882448133679281e+02 +6.2878949953472234e+04 -9.7267860048335250e+06 
+5.4999999999999964e+00 -5.9277617491393408e-01 +8.1197414653875519e+00 -3.0129689883890282e-01 -1.8107705392183917e+01 +1.0415275201265242e+03 +6.0987345824429962e+04 -9.9701638176802974e+06 
+5.5999999999999961e+00 -5.9277641589607888e-01 +8.1197284810093269e+00 -3.0534594302349727e-01 -1.7830896605161442e+01 +1.1029642562756576e+03 +5.9373153840588551e+04 -1.0222957264193576e+07 
+5.6999999999999957e+00 -5.9277666591368228e-01 +8.1197174052952263e+00 -3.0898579140426430e-01 -1.7608359761287865e+01 +1.1623779288540313e+03 +5.8059958989842751e+04 -1.0483543651082180e+07 
+5.7999999999999954e+00 -5.9277692621879430e-01 +8.1197083910553847e+00 -3.1213976009570854e-01 -1.7443896043590748e+01 +1.2190117069539217e+03 +5.7071343230320672e+04 -1.0750299987154284e+07 
+5.8999999999999950e+00 -5.9277719806351337e-01 +8.1197015910769927e+00 -3.1473115968520904e-01 -1.7341306106368563e+01 +1.2721086575222532e+03 +5.6430886283682339e+04 -1.1021602821720641e+07 
+5.9999999999999947e+00 -5.9277748269998287e-01 +8.1196971581104336e+00 -3.1668329572774911e-01 -1.7304389746765516e+01 +1.3209117562072513e+03 +5.6162163962824234e+04 -1.1295828301090077e+07 
+6.0999999999999943e+00 -5.9277778109598234e-01 +8.1196952083984009e+00 -3.1793655179897912e-01 -1.7336038571173628e+01 +1.3647738903480324e+03 +5.6283862652599128e+04 -1.1571250219190912e+07 
+6.1999999999999940e+00 -5.9277809307659401e-01 +8.1196956993283553e+00 -3.1849880809587405e-01 -1.7434742317093988e+01 +1.4034615103217568e+03 +5.6789590534137598e+04 -1.1845578673624897e+07 
+6.2999999999999936e+00 -5.9277841817955745e-01 +8.1196985452342112e+00 -3.1839463416489522e-01 -1.7597692942596812e+01 +1.4368370343635520e+03 +5.7665273082043117e+04 -1.2116335486716971e+07 
+6.3999999999999932e+00 -5.9277875594260621e-01 +8.1197036604558210e+00 -3.1764859951616226e-01 -1.7822082438493933e+01 +1.4647628652785149e+03 +5.8896835224363043e+04 -1.2381042360661849e+07 
+6.4999999999999929e+00 -5.9277910590347616e-01 +8.1197109593487049e+00 -3.1628527349175034e-01 -1.8105103160054892e+01 +1.4871013938727592e+03 +6.0470203393986703e+04 -1.2637220911599133e+07 
+6.5999999999999925e+00 -5.9277946759989919e-01 +8.1197203562802116e+00 -3.1432922599846191e-01 -1.8443947688087654e+01 +1.5037150141470213e+03 +6.2371304633603082e+04 -1.2882392745050473e+07 
+6.6999999999999922e+00 -5.9277984056960653e-01 +8.1197317656354713e+00 -3.1180502652817110e-01 -1.8835809008204873e+01 +1.5144660987545126e+03 +6.4586067631798935e+04 -1.3114079323374907e+07 
+6.7999999999999918e+00 -5.9278022435032307e-01 +8.1197451018147060e+00 -3.0873724560566168e-01 -1.9277880413282478e+01 +1.5192170323223384e+03 +6.7100422089212530e+04 -1.3329802138473071e+07 
+6.8999999999999915e+00 -5.9278061847976760e-01 +8.1197602792325796e+00 -3.0515045410320696e-01 -1.9767355498526104e+01 +1.5178301929651177e+03 +6.9900298708718678e+04 -1.3527082609842032e+07 
+6.9999999999999911e+00 -5.9278102249564990e-01 +8.1197772123255270e+00 -3.0106922409204140e-01 -2.0301428351298767e+01 +1.5101679714503580e+03 +7.2971630212995209e+04 -1.3703442182426425e+07 
+7.0999999999999908e+00 -5.9278143593569499e-01 +8.1197958155435650e+00 -2.9651812532292116e-01 -2.0877293321218481e+01 +1.4960927015887771e+03 +7.6300350018052559e+04 -1.3856401988867998e+07 
+7.1999999999999904e+00 -5.9278185833758601e-01 +8.1198160033571565e+00 -2.9152173273854043e-01 -2.1492145202992113e+01 +1.4754668037012866e+03 +7.9872393224243817e+04 -1.3983483532823676e+07 
+7.2999999999999901e+00 -5.9278228923905030e-01 +8.1198376902571319e+00 -2.8610461564865275e-01 -2.2143179236537257e+01 +1.4481525780346017e+03 +8.3673696614355911e+04 -1.4082207702161567e+07 
+7.3999999999999897e+00 -5.9278272817775279e-01 +8.1198607907526306e+00 -2.8029135084412637e-01 -2.2827591037564098e+01 +1.4140124547245769e+03 +8.7690198199984035e+04 -1.4150095963358982e+07 
+7.4999999999999893e+00 -5.9278317469138742e-01 +8.1198852193788618e+00 -2.7410651129774816e-01 -2.3542576816773412e+01 +1.3729087757504217e+03 +9.1907838459728460e+04 -1.4184669310523247e+07 
+7.5999999999999890e+00 -5.9278362831762810e-01 +8.1199108906868158e+00 -2.6757467237455801e-01 -2.4285333081017153e+01 +1.3247039171840997e+03 +9.6312558584265382e+04 -1.4183448861835035e+07 
+7.6999999999999886e+00 -5.9278408859414156e-01 +8.1199377192555158e+00 -2.6072041007469920e-01 -2.5053056976480597e+01 +1.2692602496614368e+03 +1.0089030242412697e+05 -1.4143955651101682e+07 
+7.7999999999999883e+00 -5.9278455505858241e-01 +8.1199656196814427e+00 -2.5356830166067040e-01 -2.5842945988145029e+01 +1.2064401546492666e+03 +1.0562701472870499e+05 -1.4063710719132278e+07 
+7.8999999999999879e+00 -5.9278502724860627e-01 +8.1199945065928869e+00 -2.4614292400338125e-01 -2.6652198330417932e+01 +1.1361059897158962e+03 +1.1050864334174703e+05 -1.3940234938202048e+07 
+7.9999999999999876e+00 -5.9278550470184344e-01 +8.1200242946373731e+00 -2.3846885715898539e-01 -2.7478012573558416e+01 +1.0581201623199356e+03 +1.1552113686359909e+05 -1.3771049391659724e+07 
+8.0999999999999872e+00 -5.9278598702532959e-01 +8.1200548685670277e+00 -2.3057092279854621e-01 -2.8316998806726556e+01 +9.7245017771336461e+02 +1.2064619141706500e+05 -1.3554509013597751e+07 
+8.1999999999999869e+00 -5.9278647408534724e-01 +8.1200860092015006e+00 -2.2247599991042327e-01 -2.9164126131523382e+01 +8.7950979624198453e+02 +1.2585353389112238e+05 -1.3292370353509560e+07 
+8.2999999999999865e+00 -5.9278696580869317e-01 +8.1201174753229886e+00 -2.1421176249476664e-01 -3.0014133051053662e+01 +7.7983226224828422e+02 +1.3111113609447586e+05 -1.2987268830584122e+07 
+8.3999999999999861e+00 -5.9278746212208044e-01 +8.1201490257334417e+00 -2.0580589404362054e-01 -3.0861758648207072e+01 +6.7395100545735863e+02 +1.3638697319576962e+05 -1.2641840745342791e+07 
+8.4999999999999858e+00 -5.9278796295217118e-01 +8.1201804192271005e+00 -1.9728608423521099e-01 -3.1701741770960034e+01 +5.6239958071138562e+02 +1.4164901900676553e+05 -1.2258723002803095e+07 
+8.5999999999999854e+00 -5.9278846822554132e-01 +8.1202114146064375e+00 -1.8868003121023527e-01 -3.2528821503285904e+01 +4.4571169664505641e+02 +1.4686524874453031e+05 -1.1840553208769353e+07 
+8.6999999999999851e+00 -5.9278897786868334e-01 +8.1202417706796499e+00 -1.8001544333111888e-01 -3.3337737078680320e+01 +3.2442126440530143e+02 +1.5200363849653714e+05 -1.1389969943505730e+07 
+8.7999999999999847e+00 -5.9278949180801765e-01 +8.1202712462642843e+00 -1.7132003623329389e-01 -3.4123228003406510e+01 +1.9906233227856615e+02 +1.5703216599091634e+05 -1.0909612424777051e+07 
+8.8999999999999844e+00 -5.9279000996987719e-01 +8.1202996001775603e+00 -1.6262153573117080e-01 -3.4880033753662886e+01 +7.0169146378271137e+01 +1.6191880877332814e+05 -1.0402120811141115e+07 
+8.9999999999999840e+00 -5.9279053228052125e-01 +8.1203265912447122e+00 -1.5394767555483002e-01 -3.5602894043536104e+01 -6.1723894604709891e+01 +1.6663154585229928e+05 -9.8701359795266446e+06 
+9.0999999999999837e+00 -5.9279105866611947e-01 +8.1203519782944475e+00 -1.4532619890621279e-01 -3.6286548676256288e+01 -1.9608221236479301e+02 +1.7113835677844775e+05 -9.3162996481161751e+06 
+9.1999999999999833e+00 -5.9279158905275797e-01 +8.1203755201611383e+00 -1.3678485909682767e-01 -3.6925737614790478e+01 -3.3237102835342012e+02 +1.7540722208511355e+05 -8.7432544955119267e+06 
+9.2999999999999829e+00 -5.9279212336641929e-01 +8.1203969756889762e+00 -1.2835142018378073e-01 -3.7515201097625066e+01 -4.7005536249024379e+02 +1.7940612394127753e+05 -8.1536441383978352e+06 
+9.3999999999999826e+00 -5.9279266153298493e-01 +8.1204161037236631e+00 -1.2005365762547589e-01 -3.8049679402311945e+01 -6.0860001431952617e+02 +1.8310304481340255e+05 -7.5501132381565468e+06 
+9.4999999999999822e+00 -5.9279320347828646e-01 +8.1204326631167891e+00 -1.1191935263005952e-01 -3.8523912975190854e+01 -7.4746966525654364e+02 +1.8646596821037267e+05 -6.9353070273454487e+06 
+9.5999999999999819e+00 -5.9279374912802352e-01 +8.1204464127289757e+00 -1.0397630022743634e-01 -3.8932642515486371e+01 -8.8612874081924383e+02 +1.8946287916847182e+05 -6.3118719222611971e+06 
+9.6999999999999815e+00 -5.9279429840777831e-01 +8.1204571114235353e+00 -9.6252309656710278e-02 -3.9270608801453214e+01 -1.0240413834972999e+03 +1.9206176326666868e+05 -5.6824557074875822e+06 
+9.7999999999999812e+00 -5.9279485124307951e-01 +8.1204645180724775e+00 -8.8775195007138721e-02 -3.9532552863821444e+01 -1.1606716461414078e+03 +1.9423060763956863e+05 -5.0497065699668620e+06 
+9.8999999999999808e+00 -5.9279540755932592e-01 +8.1204683915534339e+00 -8.1572784947908830e-02 -3.9713215875241083e+01 -1.2954833001041345e+03 +1.9593740027517604e+05 -4.4162740331939794e+06 
+9.9999999999999805e+00 -5.9279596728179618e-01 +8.1204684907454610e+00 -7.4672922065601610e-02 -3.9807339057236973e+01 -1.4279398440019495e+03 +1.9715012980666311e+05 -3.7848089041018519e+06 
+1.0099999999999980e+01 -5.9279653038445868e-01 +8.1204646575904711e+00 -6.8098354529100749e-02 -3.9811215091355926e+01 -1.5575466062955220e+03 +1.9784525518080208e+05 -3.1578643163799183e+06 
